1.0725 0.6415 0.1374
1.0775 0.6427 0.0972
1.0825 0.7724 0.0854
1.0875 0.8720 0.0856
1.0925 0.9230 0.0836
1.0975 0.8491 0.0776
1.1025 0.8937 0.0705
1.1075 0.9059 0.0726
1.1125 0.8803 0.0692
1.1175 0.9640 0.0691
1.1225 0.8679 0.0628
1.1275 0.8665 0.0630
1.1325 0.9591 0.0656
1.1375 0.9300 0.0620
1.1425 0.9752 0.0639
1.1475 1.0169 0.0665
1.1525 1.0830 0.0688
1.1575 1.0592 0.0652
1.1625 0.9451 0.0633
1.1675 1.0688 0.0677
1.1725 1.0172 0.0658
1.1775 1.0849 0.0660
1.1825 1.0096 0.0661
1.1875 1.0604 0.0673
1.1925 1.1745 0.0698
1.1975 1.1227 0.0678
1.2025 1.1138 0.0684
1.2075 1.1690 0.0711
1.2125 1.1917 0.0697
1.2175 1.1744 0.0690
1.2225 1.1467 0.0702
1.2275 1.2494 0.0720
1.2325 1.3229 0.0739
1.2375 1.3283 0.0738
1.2425 1.3372 0.0742
1.2475 1.3537 0.0764
1.2525 1.0930 0.0667
1.2575 1.2764 0.0716
1.2625 1.2045 0.0711
1.2675 1.3892 0.0772
1.2725 1.3573 0.0743
1.2775 1.4979 0.0785
1.2825 1.2973 0.0743
1.2875 1.3899 0.0766
1.2925 1.5634 0.0816
1.2975 1.2897 0.0714
1.3025 1.3277 0.0747
1.3075 1.3178 0.0744
1.3125 1.4888 0.0799
1.3175 1.4969 0.0769
1.3225 1.5558 0.0807
1.3275 1.5908 0.0823
1.3325 1.5543 0.0817
1.3375 1.6333 0.0810
1.3425 1.4664 0.0787
1.3475 1.6091 0.0817
1.3525 1.6039 0.0835
1.3575 1.5430 0.0797
1.3625 1.5823 0.0809
1.3675 1.8244 0.0877
1.3725 1.5958 0.0821
1.3775 1.7194 0.0863
1.3825 1.6640 0.0821
1.3875 1.7672 0.0864
1.3925 1.6667 0.0839
1.3975 1.6224 0.0840
1.4025 1.7215 0.0847
1.4075 1.6746 0.0835
1.4125 1.8993 0.0893
1.4175 1.7386 0.0871
1.4225 1.9013 0.0909
1.4275 1.7140 0.0836
1.4325 1.7954 0.0867
1.4375 1.7146 0.0854
1.4425 1.7688 0.0879
1.4475 1.8107 0.0870
1.4525 1.9656 0.0907
1.4575 1.8340 0.0882
1.4625 1.7326 0.0866
1.4675 1.8381 0.0896
1.4725 1.7267 0.0846
1.4775 1.7729 0.0865
1.4825 1.7825 0.0873
1.4875 1.6796 0.0849
1.4925 1.8336 0.0899
1.4975 1.6484 0.0827
1.5025 1.7225 0.0851
1.5075 1.6289 0.0843
1.5125 1.8142 0.0886
1.5175 1.7691 0.0885
1.5225 1.6138 0.0807
1.5275 1.6649 0.0840
1.5325 1.5703 0.0834
1.5375 1.6804 0.0864
1.5425 1.5131 0.0818
1.5475 1.5605 0.0788
1.5525 1.6907 0.0856
1.5575 1.5253 0.0816
1.5625 1.6752 0.0852
1.5675 1.6637 0.0862
1.5725 1.6060 0.0811
1.5775 1.6886 0.0853
1.5825 1.5866 0.0831
1.5875 1.4016 0.0782
1.5925 1.5103 0.0823
1.5975 1.4573 0.0771
1.6025 1.5184 0.0804
1.6075 1.4825 0.0810
1.6125 1.4357 0.0799
1.6175 1.3452 0.0777
1.6225 1.2098 0.0706
1.6275 1.3733 0.0771
1.6325 1.4569 0.0792
1.6375 1.2510 0.0749
1.6425 1.2628 0.0749
1.6475 1.2792 0.0730
1.6525 1.2289 0.0726
1.6575 1.2047 0.0722
1.6625 1.2513 0.0749
1.6675 1.2228 0.0737
1.6725 1.1842 0.0710
1.6775 1.1933 0.0714
1.6825 1.0922 0.0691
1.6875 1.1975 0.0733
1.6925 1.1070 0.0700
1.6975 1.1213 0.0709
1.7025 1.1618 0.0693
1.7075 1.0691 0.0679
1.7125 1.0622 0.0687
1.7175 0.8811 0.0622
1.7225 0.9458 0.0654
1.7275 0.8867 0.0612
1.7325 1.0521 0.0675
1.7375 0.9826 0.0658
1.7425 0.7937 0.0597
1.7475 0.8976 0.0633
1.7525 0.7851 0.0599
1.7575 0.8736 0.0598
1.7625 0.9177 0.0630
1.7675 0.9336 0.0644
1.7725 0.7627 0.0585
1.7775 0.7857 0.0599
1.7825 0.7999 0.0585
1.7875 0.7858 0.0581
1.7925 0.7431 0.0570
1.7975 0.6732 0.0547
1.8025 0.6553 0.0545
1.8075 0.7149 0.0571
1.8125 0.6757 0.0528
1.8175 0.6217 0.0523
1.8225 0.6134 0.0520
1.8275 0.6127 0.0525
1.8325 0.6521 0.0543
1.8375 0.6713 0.0554
1.8425 0.6098 0.0501
1.8475 0.4993 0.0470
1.8525 0.4906 0.0468
1.8575 0.5563 0.0499
1.8625 0.4958 0.0475
1.8675 0.5090 0.0470
1.8725 0.6626 0.0536
1.8775 0.5773 0.0504
1.8825 0.4986 0.0471
1.8875 0.5527 0.0500
1.8925 0.4802 0.0468
1.8975 0.4321 0.0430
1.9025 0.4634 0.0450
1.9075 0.4563 0.0449
1.9125 0.4803 0.0464
1.9175 0.4133 0.0430
1.9225 0.3932 0.0424
1.9275 0.4285 0.0431
1.9325 0.4622 0.0444
1.9375 0.4077 0.0430
1.9425 0.3590 0.0401
1.9475 0.3814 0.0418
1.9525 0.3200 0.0382
1.9575 0.3604 0.0388
1.9625 0.3586 0.0398
1.9675 0.3600 0.0397
1.9725 0.3216 0.0384
1.9775 0.3551 0.0402
1.9825 0.2861 0.0363
1.9875 0.3334 0.0375
1.9925 0.3572 0.0394
1.9975 0.2843 0.0358
2.0025 0.2488 0.0336
2.0075 0.2093 0.0308
2.0125 0.2956 0.0367
2.0175 0.2650 0.0337
2.0225 0.3085 0.0369
2.0275 0.2667 0.0344
2.0325 0.3228 0.0386
2.0375 0.1897 0.0292
2.0425 0.2498 0.0337
2.0475 0.2595 0.0335
2.0525 0.2299 0.0315
2.0575 0.2538 0.0339
2.0625 0.2425 0.0330
2.0675 0.1935 0.0296
2.0725 0.2032 0.0307
2.0775 0.2287 0.0317
2.0825 0.1925 0.0287
2.0875 0.2046 0.0302
2.0925 0.1846 0.0288
2.0975 0.1878 0.0293
2.1025 0.1595 0.0270
2.1075 0.1579 0.0267
2.1125 0.2246 0.0309
2.1175 0.1762 0.0279
2.1225 0.1636 0.0273
2.1275 0.1772 0.0284
2.1325 0.1805 0.0289
2.1375 0.1841 0.0291
2.1425 0.1417 0.0243
2.1475 0.1185 0.0228
2.1525 0.1756 0.0281
2.1575 0.1612 0.0273
2.1625 0.1297 0.0245
2.1675 0.1590 0.0269
2.1725 0.1267 0.0231
2.1775 0.1413 0.0250
2.1825 0.0990 0.0211
2.1875 0.1097 0.0224
2.1925 0.0871 0.0200
2.1975 0.0868 0.0199
2.2025 0.0726 0.0176
2.2075 0.0488 0.0147
2.2125 0.0624 0.0167
2.2175 0.0549 0.0158
2.2225 0.0548 0.0158
2.2275 0.0601 0.0166
2.2325 0.0437 0.0139
2.2375 0.0174 0.0087
2.2425 0.0448 0.0142
2.2475 0.0315 0.0119
2.2525 0.0137 0.0079
2.2575 0.0185 0.0092
2.2625 0.0046 0.0046
2.2675 0.0126 0.0073
2.2725 0.0089 0.0063
2.2775 0.0000 1.0000
2.2825 0.0138 0.0080
2.2875 0.0000 1.0000
2.2925 0.0046 0.0046
2.2975 0.0000 1.0000
2.3025 0.0045 0.0045
2.3075 0.0089 0.0063
2.3125 0.0091 0.0064
2.3175 0.0046 0.0046
2.3225 0.0000 1.0000
2.3275 0.0173 0.0086
2.3325 0.0130 0.0076
2.3375 0.0351 0.0125
2.3425 0.0183 0.0091
2.3475 0.0000 1.0000
2.3525 0.0138 0.0080
2.3575 0.0088 0.0062
2.3625 0.0042 0.0042
2.3675 0.0091 0.0065
2.3725 0.0045 0.0045
2.3775 0.0046 0.0046
2.3825 0.0000 1.0000
2.3875 0.0090 0.0064
2.3925 0.0042 0.0042
2.3975 0.0045 0.0045
2.4025 0.0000 1.0000
2.4075 0.0091 0.0064
2.4125 0.0000 1.0000
2.4175 0.0000 1.0000
2.4225 0.0000 1.0000
2.4275 0.0045 0.0045
2.4325 0.0045 0.0045
2.4375 0.0045 0.0045
2.4425 0.0046 0.0046
2.4475 0.0000 1.0000
2.4525 0.0249 0.0102
2.4575 0.0044 0.0044
2.4625 0.0179 0.0089
2.4675 0.0414 0.0138
2.4725 0.0091 0.0065
2.4775 0.0000 1.0000
2.4825 0.0126 0.0073
2.4875 0.0087 0.0062
2.4925 0.0045 0.0045
2.4975 0.0046 0.0046
2.5025 0.0000 1.0000
2.5075 0.0000 1.0000
2.5125 0.0000 1.0000
2.5175 0.0000 1.0000
2.5225 0.0000 1.0000
2.5275 0.0000 1.0000
2.5325 0.0000 1.0000
2.5375 0.0000 1.0000
2.5425 0.0000 1.0000
2.5475 0.0178 0.0089
2.5525 0.0179 0.0089
2.5575 0.0091 0.0065
2.5625 0.0000 1.0000
2.5675 0.0139 0.0080
2.5725 0.0249 0.0101
2.5775 0.0044 0.0044
2.5825 0.0000 1.0000
2.5875 0.0000 1.0000
2.5925 0.0089 0.0063
2.5975 0.0140 0.0081
2.6025 0.0203 0.0091
2.6075 0.0000 1.0000
2.6125 0.0000 1.0000
2.6175 0.0045 0.0045
2.6225 0.0046 0.0046
2.6275 0.0044 0.0044
2.6325 0.0043 0.0043
2.6375 0.0000 1.0000
2.6425 0.0000 1.0000
2.6475 0.0000 1.0000
2.6525 0.0139 0.0080
2.6575 0.0127 0.0073
2.6625 0.0086 0.0061
2.6675 0.0000 1.0000
2.6725 0.0045 0.0045
2.6775 0.0046 0.0046
2.6825 0.0046 0.0046
2.6875 0.0041 0.0041
2.6925 0.0000 1.0000
2.6975 0.0045 0.0044
0.0000 0.0000 1.0000
0.0000 0.0000 1.0000
0.0000 0.0000 1.0000
0.0000 0.0000 1.0000
0.0000 0.0000 1.0000
0.0000 0.0000 1.0000
0.0000 0.0000 1.0000
0.0000 0.0000 1.0000
0.0000 0.0000 1.0000
0.0000 0.0000 1.0000
0.0000 0.0000 1.0000
0.0000 0.0000 1.0000
0.0000 0.0000 1.0000
0.0000 0.0000 1.0000
