1.0725 0.7564 0.1492
1.0775 0.8047 0.1088
1.0825 0.6025 0.0754
1.0875 0.9568 0.0897
1.0925 0.7711 0.0764
1.0975 0.8218 0.0763
1.1025 0.7824 0.0659
1.1075 0.9008 0.0724
1.1125 0.9451 0.0717
1.1175 0.8314 0.0642
1.1225 0.8536 0.0623
1.1275 0.8892 0.0639
1.1325 0.7622 0.0585
1.1375 0.9379 0.0623
1.1425 0.9829 0.0641
1.1475 0.8737 0.0616
1.1525 1.0437 0.0675
1.1575 0.9955 0.0632
1.1625 0.9614 0.0638
1.1675 1.0178 0.0661
1.1725 1.0933 0.0682
1.1775 1.0531 0.0650
1.1825 1.0481 0.0674
1.1875 0.9831 0.0648
1.1925 0.9584 0.0631
1.1975 1.0615 0.0660
1.2025 1.0931 0.0678
1.2075 1.0997 0.0690
1.2125 1.1714 0.0691
1.2175 1.0361 0.0648
1.2225 1.1248 0.0695
1.2275 1.3034 0.0735
1.2325 1.2846 0.0729
1.2375 1.1604 0.0690
1.2425 1.2550 0.0719
1.2475 1.2281 0.0728
1.2525 1.2183 0.0704
1.2575 1.3484 0.0736
1.2625 1.2128 0.0714
1.2675 1.2524 0.0733
1.2725 1.3537 0.0742
1.2775 1.4193 0.0764
1.2825 1.2937 0.0742
1.2875 1.2970 0.0740
1.2925 1.3881 0.0769
1.2975 1.3967 0.0743
1.3025 1.3522 0.0754
1.3075 1.3470 0.0752
1.3125 1.4804 0.0797
1.3175 1.4469 0.0756
1.3225 1.4602 0.0782
1.3275 1.5389 0.0809
1.3325 1.5282 0.0810
1.3375 1.5295 0.0784
1.3425 1.6869 0.0844
1.3475 1.5638 0.0806
1.3525 1.5779 0.0828
1.3575 1.5504 0.0799
1.3625 1.5253 0.0794
1.3675 1.6080 0.0824
1.3725 1.6713 0.0840
1.3775 1.6715 0.0851
1.3825 1.7292 0.0837
1.3875 1.8230 0.0877
1.3925 1.8059 0.0873
1.3975 1.6756 0.0854
1.4025 1.8093 0.0868
1.4075 1.8285 0.0873
1.4125 1.7609 0.0860
1.4175 1.8517 0.0899
1.4225 1.9182 0.0913
1.4275 1.8052 0.0858
1.4325 1.8369 0.0877
1.4375 1.8769 0.0894
1.4425 2.0317 0.0942
1.4475 1.8150 0.0871
1.4525 1.8245 0.0874
1.4575 1.8335 0.0881
1.4625 1.9360 0.0915
1.4675 1.8161 0.0891
1.4725 1.9701 0.0904
1.4775 1.7348 0.0856
1.4825 1.8593 0.0891
1.4875 1.8902 0.0901
1.4925 1.9666 0.0931
1.4975 1.8599 0.0878
1.5025 1.9498 0.0905
1.5075 1.9782 0.0929
1.5125 1.7575 0.0872
1.5175 1.7912 0.0890
1.5225 1.8843 0.0872
1.5275 1.9832 0.0917
1.5325 1.7512 0.0880
1.5375 1.8192 0.0899
1.5425 1.7608 0.0883
1.5475 1.7266 0.0829
1.5525 1.8408 0.0893
1.5575 1.8742 0.0905
1.5625 1.7192 0.0863
1.5675 1.7799 0.0891
1.5725 1.5979 0.0809
1.5775 1.6812 0.0851
1.5825 1.7991 0.0884
1.5875 1.5266 0.0816
1.5925 1.5374 0.0830
1.5975 1.7014 0.0833
1.6025 1.4981 0.0798
1.6075 1.6824 0.0863
1.6125 1.5823 0.0839
1.6175 1.4001 0.0792
1.6225 1.4288 0.0767
1.6275 1.4550 0.0794
1.6325 1.3972 0.0776
1.6375 1.5291 0.0828
1.6425 1.4853 0.0812
1.6475 1.5510 0.0804
1.6525 1.3314 0.0756
1.6575 1.5125 0.0809
1.6625 1.3052 0.0765
1.6675 1.4316 0.0798
1.6725 1.3843 0.0767
1.6775 1.3129 0.0749
1.6825 1.3018 0.0754
1.6875 1.2512 0.0749
1.6925 1.1549 0.0715
1.6975 1.2158 0.0738
1.7025 1.2536 0.0720
1.7075 1.1989 0.0719
1.7125 1.1422 0.0713
1.7175 1.1278 0.0703
1.7225 1.1085 0.0708
1.7275 1.0428 0.0663
1.7325 1.1424 0.0703
1.7375 1.0618 0.0684
1.7425 0.9192 0.0642
1.7475 0.9868 0.0664
1.7525 0.9040 0.0642
1.7575 0.8981 0.0607
1.7625 0.9438 0.0639
1.7675 0.7781 0.0588
1.7725 0.9918 0.0667
1.7775 0.9639 0.0663
1.7825 0.8199 0.0592
1.7875 0.8756 0.0613
1.7925 0.8262 0.0601
1.7975 0.7440 0.0575
1.8025 0.7680 0.0590
1.8075 0.8064 0.0607
1.8125 0.7579 0.0560
1.8175 0.6969 0.0554
1.8225 0.6614 0.0540
1.8275 0.6838 0.0555
1.8325 0.7194 0.0571
1.8375 0.7439 0.0583
1.8425 0.6831 0.0530
1.8475 0.6503 0.0536
1.8525 0.6471 0.0537
1.8575 0.6598 0.0544
1.8625 0.5956 0.0520
1.8675 0.6567 0.0534
1.8725 0.6408 0.0527
1.8775 0.5644 0.0499
1.8825 0.6006 0.0517
1.8875 0.5167 0.0484
1.8925 0.4893 0.0473
1.8975 0.5342 0.0478
1.9025 0.5294 0.0481
1.9075 0.5672 0.0501
1.9125 0.4804 0.0464
1.9175 0.4442 0.0446
1.9225 0.4292 0.0443
1.9275 0.5199 0.0474
1.9325 0.4408 0.0434
1.9375 0.4577 0.0455
1.9425 0.5252 0.0485
1.9475 0.4408 0.0450
1.9525 0.4301 0.0443
1.9575 0.4148 0.0417
1.9625 0.4121 0.0427
1.9675 0.3773 0.0407
1.9725 0.3857 0.0421
1.9775 0.3371 0.0391
1.9825 0.4105 0.0435
1.9875 0.3888 0.0405
1.9925 0.3481 0.0389
1.9975 0.3741 0.0410
2.0025 0.2811 0.0357
2.0075 0.3094 0.0375
2.0125 0.2592 0.0343
2.0175 0.3636 0.0394
2.0225 0.2557 0.0336
2.0275 0.2803 0.0353
2.0325 0.3183 0.0383
2.0375 0.3203 0.0380
2.0425 0.2547 0.0340
2.0475 0.2858 0.0352
2.0525 0.2294 0.0315
2.0575 0.2173 0.0314
2.0625 0.2430 0.0331
2.0675 0.2392 0.0329
2.0725 0.1894 0.0297
2.0775 0.1846 0.0285
2.0825 0.2091 0.0299
2.0875 0.2267 0.0317
2.0925 0.1979 0.0299
2.0975 0.2057 0.0307
2.1025 0.1874 0.0293
2.1075 0.1898 0.0293
2.1125 0.1864 0.0281
2.1175 0.2112 0.0305
2.1225 0.2590 0.0343
2.1275 0.1680 0.0276
2.1325 0.1991 0.0304
2.1375 0.1614 0.0273
2.1425 0.1961 0.0286
2.1475 0.2019 0.0298
2.1525 0.2118 0.0309
2.1575 0.1611 0.0272
2.1625 0.1573 0.0270
2.1675 0.1817 0.0287
2.1725 0.1773 0.0273
2.1775 0.1240 0.0234
2.1825 0.1532 0.0263
2.1875 0.1004 0.0214
2.1925 0.1008 0.0215
2.1975 0.0549 0.0158
2.2025 0.0813 0.0186
2.2075 0.0663 0.0171
2.2125 0.0623 0.0166
2.2175 0.0640 0.0171
2.2225 0.0821 0.0194
2.2275 0.0600 0.0166
2.2325 0.0132 0.0076
2.2375 0.0349 0.0123
2.2425 0.0180 0.0090
2.2475 0.0045 0.0045
2.2525 0.0046 0.0046
2.2575 0.0139 0.0080
2.2625 0.0046 0.0046
2.2675 0.0042 0.0042
2.2725 0.0044 0.0044
2.2775 0.0000 1.0000
2.2825 0.0000 1.0000
2.2875 0.0046 0.0046
2.2925 0.0140 0.0081
2.2975 0.0083 0.0059
2.3025 0.0133 0.0077
2.3075 0.0223 0.0100
2.3125 0.0091 0.0064
2.3175 0.0000 1.0000
2.3225 0.0000 1.0000
2.3275 0.0042 0.0042
2.3325 0.0000 1.0000
2.3375 0.0044 0.0044
2.3425 0.0090 0.0064
2.3475 0.0276 0.0113
2.3525 0.0137 0.0079
2.3575 0.0000 1.0000
2.3625 0.0042 0.0043
2.3675 0.0000 1.0000
2.3725 0.0000 1.0000
2.3775 0.0138 0.0079
2.3825 0.0324 0.0122
2.3875 0.0135 0.0078
2.3925 0.0042 0.0042
2.3975 0.0000 1.0000
2.4025 0.0000 1.0000
2.4075 0.0318 0.0120
2.4125 0.0371 0.0131
2.4175 0.0231 0.0103
2.4225 0.0374 0.0125
2.4275 0.0134 0.0077
2.4325 0.0045 0.0045
2.4375 0.0045 0.0045
2.4425 0.0231 0.0103
2.4475 0.0046 0.0046
2.4525 0.0042 0.0042
2.4575 0.0000 1.0000
2.4625 0.0045 0.0045
2.4675 0.0184 0.0092
2.4725 0.0092 0.0065
2.4775 0.0000 1.0000
2.4825 0.0042 0.0042
2.4875 0.0087 0.0062
2.4925 0.0179 0.0090
2.4975 0.0091 0.0064
2.5025 0.0045 0.0046
2.5075 0.0000 1.0000
2.5125 0.0084 0.0059
2.5175 0.0044 0.0044
2.5225 0.0181 0.0091
2.5275 0.0133 0.0077
2.5325 0.0047 0.0047
2.5375 0.0000 1.0000
2.5425 0.0041 0.0041
2.5475 0.0089 0.0063
2.5525 0.0000 1.0000
2.5575 0.0046 0.0046
2.5625 0.0182 0.0091
2.5675 0.0000 1.0000
2.5725 0.0042 0.0042
2.5775 0.0132 0.0076
2.5825 0.0000 1.0000
2.5875 0.0000 1.0000
2.5925 0.0000 1.0000
2.5975 0.0373 0.0132
2.6025 0.0161 0.0081
2.6075 0.0178 0.0089
2.6125 0.0179 0.0090
2.6175 0.0136 0.0078
2.6225 0.0137 0.0079
2.6275 0.0219 0.0098
2.6325 0.0171 0.0085
2.6375 0.0311 0.0118
2.6425 0.0000 1.0000
2.6475 0.0000 1.0000
2.6525 0.0278 0.0113
2.6575 0.0042 0.0042
2.6625 0.0043 0.0043
2.6675 0.0134 0.0078
2.6725 0.0135 0.0078
2.6775 0.0137 0.0079
2.6825 0.0091 0.0065
2.6875 0.0124 0.0071
2.6925 0.0264 0.0108
2.6975 0.0133 0.0077
0.0000 0.0000 1.0000
0.0000 0.0000 1.0000
0.0000 0.0000 1.0000
0.0000 0.0000 1.0000
0.0000 0.0000 1.0000
0.0000 0.0000 1.0000
0.0000 0.0000 1.0000
0.0000 0.0000 1.0000
0.0000 0.0000 1.0000
0.0000 0.0000 1.0000
0.0000 0.0000 1.0000
0.0000 0.0000 1.0000
0.0000 0.0000 1.0000
0.0000 0.0000 1.0000
