1.0725 1.0764 0.1779
1.0775 1.0235 0.1227
1.0825 0.6777 0.0800
1.0875 0.8728 0.0856
1.0925 0.6878 0.0722
1.0975 0.7575 0.0733
1.1025 0.8161 0.0673
1.1075 0.9349 0.0737
1.1125 0.8093 0.0663
1.1175 0.8623 0.0653
1.1225 1.0307 0.0684
1.1275 0.8395 0.0621
1.1325 0.9007 0.0636
1.1375 0.9176 0.0616
1.1425 0.8158 0.0584
1.1475 0.9171 0.0631
1.1525 0.8820 0.0621
1.1575 0.9113 0.0605
1.1625 0.9703 0.0641
1.1675 0.9918 0.0652
1.1725 0.8767 0.0611
1.1775 0.9683 0.0624
1.1825 1.0614 0.0678
1.1875 1.0521 0.0671
1.1925 1.0213 0.0651
1.1975 1.0077 0.0643
1.2025 1.0383 0.0661
1.2075 1.1003 0.0690
1.2125 1.1347 0.0681
1.2175 1.0852 0.0663
1.2225 1.0823 0.0682
1.2275 1.0089 0.0647
1.2325 1.1695 0.0695
1.2375 1.0787 0.0665
1.2425 1.1114 0.0676
1.2475 1.0906 0.0686
1.2525 1.3126 0.0730
1.2575 1.2690 0.0714
1.2625 1.1551 0.0697
1.2675 1.3900 0.0772
1.2725 1.2636 0.0717
1.2775 1.4034 0.0760
1.2825 1.3359 0.0754
1.2875 1.3348 0.0750
1.2925 1.2742 0.0736
1.2975 1.4114 0.0747
1.3025 1.3565 0.0755
1.3075 1.3256 0.0746
1.3125 1.3336 0.0757
1.3175 1.3430 0.0729
1.3225 1.5281 0.0800
1.3275 1.3823 0.0767
1.3325 1.3901 0.0772
1.3375 1.4962 0.0775
1.3425 1.4165 0.0773
1.3475 1.4568 0.0777
1.3525 1.4998 0.0808
1.3575 1.5181 0.0790
1.3625 1.5582 0.0802
1.3675 1.4862 0.0792
1.3725 1.6046 0.0823
1.3775 1.6283 0.0840
1.3825 1.6278 0.0812
1.3875 1.6828 0.0843
1.3925 1.6004 0.0822
1.3975 1.6757 0.0854
1.4025 1.6207 0.0822
1.4075 1.6576 0.0831
1.4125 1.6900 0.0843
1.4175 1.5987 0.0836
1.4225 1.6448 0.0846
1.4275 1.6780 0.0828
1.4325 1.6073 0.0820
1.4375 1.5532 0.0813
1.4425 1.7164 0.0866
1.4475 1.6190 0.0823
1.4525 1.5850 0.0814
1.4575 1.6731 0.0842
1.4625 1.7329 0.0866
1.4675 1.6771 0.0856
1.4725 1.7849 0.0861
1.4775 1.8359 0.0880
1.4825 1.6675 0.0844
1.4875 1.9291 0.0910
1.4925 1.6920 0.0863
1.4975 1.5865 0.0811
1.5025 1.6729 0.0838
1.5075 1.6416 0.0847
1.5125 1.6022 0.0833
1.5175 1.5128 0.0818
1.5225 1.5730 0.0796
1.5275 1.6780 0.0843
1.5325 1.7165 0.0872
1.5375 1.4856 0.0813
1.5425 1.4727 0.0807
1.5475 1.5728 0.0792
1.5525 1.5488 0.0819
1.5575 1.4922 0.0807
1.5625 1.5631 0.0823
1.5675 1.6335 0.0854
1.5725 1.4259 0.0764
1.5775 1.2926 0.0746
1.5825 1.4989 0.0807
1.5875 1.3748 0.0775
1.5925 1.4389 0.0803
1.5975 1.4284 0.0764
1.6025 1.3999 0.0772
1.6075 1.3053 0.0760
1.6125 1.4401 0.0800
1.6175 1.4038 0.0793
1.6225 1.4283 0.0767
1.6275 1.4289 0.0786
1.6325 1.3061 0.0750
1.6375 1.3097 0.0766
1.6425 1.1869 0.0726
1.6475 1.2880 0.0733
1.6525 1.1171 0.0692
1.6575 1.2914 0.0748
1.6625 1.1577 0.0721
1.6675 1.2987 0.0760
1.6725 1.1843 0.0710
1.6775 1.2655 0.0735
1.6825 1.1226 0.0700
1.6875 1.0088 0.0673
1.6925 1.1460 0.0712
1.6975 0.9780 0.0662
1.7025 0.9673 0.0632
1.7075 1.0305 0.0666
1.7125 0.9685 0.0656
1.7175 1.0397 0.0675
1.7225 0.9095 0.0642
1.7275 0.9376 0.0629
1.7325 1.0435 0.0672
1.7375 0.9558 0.0649
1.7425 0.9868 0.0665
1.7475 0.9734 0.0659
1.7525 0.8035 0.0606
1.7575 0.9515 0.0624
1.7625 0.8491 0.0606
1.7675 0.8934 0.0630
1.7725 0.7482 0.0579
1.7775 0.8125 0.0609
1.7825 0.8293 0.0595
1.7875 0.7729 0.0576
1.7925 0.7869 0.0586
1.7975 0.7713 0.0585
1.8025 0.7998 0.0602
1.8075 0.8063 0.0607
1.8125 0.6756 0.0528
1.8175 0.7707 0.0583
1.8225 0.6478 0.0534
1.8275 0.6169 0.0527
1.8325 0.7200 0.0571
1.8375 0.7448 0.0583
1.8425 0.6332 0.0510
1.8475 0.6187 0.0523
1.8525 0.6426 0.0536
1.8575 0.5701 0.0506
1.8625 0.5727 0.0510
1.8675 0.5830 0.0503
1.8725 0.6414 0.0527
1.8775 0.5425 0.0489
1.8825 0.5652 0.0501
1.8875 0.4844 0.0468
1.8925 0.4569 0.0457
1.8975 0.5174 0.0470
1.9025 0.5598 0.0494
1.9075 0.4520 0.0447
1.9125 0.4580 0.0453
1.9175 0.4668 0.0458
1.9225 0.4707 0.0464
1.9275 0.4547 0.0444
1.9325 0.4107 0.0419
1.9375 0.3218 0.0382
1.9425 0.4175 0.0433
1.9475 0.3536 0.0403
1.9525 0.4024 0.0429
1.9575 0.4058 0.0412
1.9625 0.4030 0.0422
1.9675 0.3595 0.0397
1.9725 0.2893 0.0364
1.9775 0.3097 0.0375
1.9825 0.3000 0.0372
1.9875 0.3595 0.0389
1.9925 0.2652 0.0340
1.9975 0.3471 0.0395
2.0025 0.2858 0.0360
2.0075 0.3455 0.0396
2.0125 0.2364 0.0328
2.0175 0.2736 0.0342
2.0225 0.2471 0.0330
2.0275 0.2891 0.0358
2.0325 0.2815 0.0360
2.0375 0.2390 0.0328
2.0425 0.2817 0.0358
2.0475 0.2513 0.0330
2.0525 0.2599 0.0335
2.0575 0.2266 0.0320
2.0625 0.2570 0.0340
2.0675 0.2435 0.0332
2.0725 0.2545 0.0344
2.0775 0.2198 0.0311
2.0825 0.1921 0.0287
2.0875 0.2263 0.0317
2.0925 0.1848 0.0289
2.0975 0.1925 0.0297
2.1025 0.1962 0.0299
2.1075 0.1944 0.0297
2.1125 0.2201 0.0305
2.1175 0.2245 0.0314
2.1225 0.1181 0.0232
2.1275 0.1775 0.0284
2.1325 0.1250 0.0241
2.1375 0.1885 0.0295
2.1425 0.1542 0.0253
2.1475 0.1930 0.0291
2.1525 0.1622 0.0270
2.1575 0.1199 0.0235
2.1625 0.1666 0.0278
2.1675 0.1409 0.0253
2.1725 0.1349 0.0239
2.1775 0.1284 0.0238
2.1825 0.1484 0.0259
2.1875 0.1050 0.0219
2.1925 0.1422 0.0255
2.1975 0.0957 0.0209
2.2025 0.0813 0.0186
2.2075 0.0930 0.0203
2.2125 0.0268 0.0109
2.2175 0.0502 0.0151
2.2225 0.0593 0.0165
2.2275 0.0323 0.0122
2.2325 0.0395 0.0132
2.2375 0.0392 0.0130
2.2425 0.0224 0.0100
2.2475 0.0090 0.0064
2.2525 0.0045 0.0045
2.2575 0.0046 0.0046
2.2625 0.0093 0.0065
2.2675 0.0042 0.0042
2.2725 0.0044 0.0044
2.2775 0.0089 0.0063
2.2825 0.0000 1.0000
2.2875 0.0092 0.0065
2.2925 0.0046 0.0047
2.2975 0.0084 0.0059
2.3025 0.0000 1.0000
2.3075 0.0000 1.0000
2.3125 0.0000 1.0000
2.3175 0.0046 0.0046
2.3225 0.0000 1.0000
2.3275 0.0042 0.0043
2.3325 0.0000 1.0000
2.3375 0.0000 1.0000
2.3425 0.0000 1.0000
2.3475 0.0046 0.0046
2.3525 0.0278 0.0113
2.3575 0.0130 0.0075
2.3625 0.0085 0.0060
2.3675 0.0091 0.0065
2.3725 0.0136 0.0078
2.3775 0.0137 0.0079
2.3825 0.0185 0.0093
2.3875 0.0045 0.0045
2.3925 0.0042 0.0042
2.3975 0.0000 1.0000
2.4025 0.0045 0.0045
2.4075 0.0090 0.0064
2.4125 0.0000 1.0000
2.4175 0.0046 0.0046
2.4225 0.0000 1.0000
2.4275 0.0045 0.0045
2.4325 0.0000 1.0000
2.4375 0.0045 0.0045
2.4425 0.0000 1.0000
2.4475 0.0276 0.0113
2.4525 0.0165 0.0083
2.4575 0.0000 1.0000
2.4625 0.0045 0.0045
2.4675 0.0139 0.0080
2.4725 0.0000 1.0000
2.4775 0.0138 0.0080
2.4825 0.0000 1.0000
2.4875 0.0044 0.0044
2.4925 0.0045 0.0045
2.4975 0.0000 1.0000
2.5025 0.0000 1.0000
2.5075 0.0000 1.0000
2.5125 0.0125 0.0073
2.5175 0.0000 1.0000
2.5225 0.0045 0.0045
2.5275 0.0089 0.0063
2.5325 0.0093 0.0066
2.5375 0.0046 0.0046
2.5425 0.0041 0.0041
2.5475 0.0044 0.0044
2.5525 0.0044 0.0045
2.5575 0.0091 0.0065
2.5625 0.0137 0.0079
2.5675 0.0046 0.0046
2.5725 0.0083 0.0059
2.5775 0.0088 0.0062
2.5825 0.0045 0.0045
2.5875 0.0000 1.0000
2.5925 0.0090 0.0064
2.5975 0.0047 0.0047
2.6025 0.0000 1.0000
2.6075 0.0000 1.0000
2.6125 0.0000 1.0000
2.6175 0.0000 1.0000
2.6225 0.0000 1.0000
2.6275 0.0044 0.0044
2.6325 0.0042 0.0042
2.6375 0.0133 0.0077
2.6425 0.0045 0.0045
2.6475 0.0000 1.0000
2.6525 0.0046 0.0046
2.6575 0.0127 0.0073
2.6625 0.0172 0.0086
2.6675 0.0090 0.0064
2.6725 0.0090 0.0064
2.6775 0.0046 0.0046
2.6825 0.0046 0.0046
2.6875 0.0082 0.0058
2.6925 0.0088 0.0062
2.6975 0.0133 0.0077
0.0000 0.0000 1.0000
0.0000 0.0000 1.0000
0.0000 0.0000 1.0000
0.0000 0.0000 1.0000
0.0000 0.0000 1.0000
0.0000 0.0000 1.0000
0.0000 0.0000 1.0000
0.0000 0.0000 1.0000
0.0000 0.0000 1.0000
0.0000 0.0000 1.0000
0.0000 0.0000 1.0000
0.0000 0.0000 1.0000
0.0000 0.0000 1.0000
0.0000 0.0000 1.0000
