1.0725 0.6395 0.1371
1.0775 0.8329 0.1107
1.0825 0.9322 0.0938
1.0875 1.0073 0.0920
1.0925 1.0295 0.0883
1.0975 0.8992 0.0799
1.1025 0.9885 0.0741
1.1075 0.9066 0.0726
1.1125 0.9506 0.0719
1.1175 0.9348 0.0680
1.1225 0.9040 0.0641
1.1275 1.1419 0.0724
1.1325 1.0844 0.0697
1.1375 1.0411 0.0656
1.1425 0.9626 0.0635
1.1475 0.9826 0.0654
1.1525 0.9471 0.0643
1.1575 1.0991 0.0664
1.1625 0.9536 0.0636
1.1675 1.1939 0.0716
1.1725 1.1151 0.0689
1.1775 1.0701 0.0656
1.1825 1.1391 0.0702
1.1875 1.0049 0.0655
1.1925 1.1500 0.0691
1.1975 1.3195 0.0735
1.2025 1.0967 0.0679
1.2075 1.2599 0.0739
1.2125 1.2204 0.0706
1.2175 1.2473 0.0711
1.2225 1.2361 0.0728
1.2275 1.2455 0.0719
1.2325 1.3970 0.0760
1.2375 1.2917 0.0728
1.2425 1.2345 0.0713
1.2475 1.2286 0.0728
1.2525 1.3569 0.0743
1.2575 1.3365 0.0733
1.2625 1.4156 0.0771
1.2675 1.3983 0.0775
1.2725 1.3776 0.0748
1.2775 1.3124 0.0735
1.2825 1.4669 0.0790
1.2875 1.4031 0.0769
1.2925 1.5342 0.0808
1.2975 1.5022 0.0771
1.3025 1.5031 0.0795
1.3075 1.5517 0.0807
1.3125 1.5267 0.0809
1.3175 1.4569 0.0759
1.3225 1.5573 0.0807
1.3275 1.6201 0.0830
1.3325 1.7164 0.0858
1.3375 1.7177 0.0831
1.3425 1.6190 0.0827
1.3475 1.4565 0.0777
1.3525 1.6991 0.0859
1.3575 1.7813 0.0856
1.3625 1.6782 0.0833
1.3675 1.5917 0.0820
1.3725 1.7815 0.0867
1.3775 1.7150 0.0862
1.3825 1.7612 0.0844
1.3875 1.8435 0.0882
1.3925 1.7643 0.0863
1.3975 1.8105 0.0887
1.4025 1.7460 0.0853
1.4075 1.9084 0.0892
1.4125 1.7905 0.0867
1.4175 1.9705 0.0928
1.4225 1.8143 0.0888
1.4275 1.8335 0.0865
1.4325 1.8168 0.0872
1.4375 1.8134 0.0878
1.4425 1.8171 0.0891
1.4475 1.7227 0.0849
1.4525 1.8825 0.0888
1.4575 1.9393 0.0906
1.4625 2.0226 0.0936
1.4675 1.8076 0.0888
1.4725 1.6515 0.0828
1.4775 1.9207 0.0900
1.4825 1.8211 0.0882
1.4875 1.8133 0.0882
1.4925 1.8689 0.0907
1.4975 1.9480 0.0899
1.5025 1.7188 0.0850
1.5075 1.8472 0.0898
1.5125 1.7238 0.0864
1.5175 1.6015 0.0842
1.5225 1.6059 0.0805
1.5275 1.7969 0.0873
1.5325 1.7198 0.0872
1.5375 1.7431 0.0880
1.5425 1.7562 0.0882
1.5475 1.7375 0.0832
1.5525 1.6981 0.0857
1.5575 1.6822 0.0857
1.5625 1.5895 0.0830
1.5675 1.5972 0.0844
1.5725 1.6227 0.0815
1.5775 1.5589 0.0820
1.5825 1.6422 0.0845
1.5875 1.5754 0.0829
1.5925 1.5239 0.0827
1.5975 1.5293 0.0790
1.6025 1.3527 0.0759
1.6075 1.5619 0.0831
1.6125 1.3773 0.0782
1.6175 1.4841 0.0816
1.6225 1.3094 0.0734
1.6275 1.5464 0.0818
1.6325 1.3453 0.0761
1.6375 1.3998 0.0792
1.6425 1.3245 0.0767
1.6475 1.3310 0.0745
1.6525 1.3827 0.0770
1.6575 1.2177 0.0726
1.6625 1.2652 0.0753
1.6675 1.2531 0.0746
1.6725 1.0817 0.0678
1.6775 1.0943 0.0684
1.6825 1.1712 0.0715
1.6875 1.0625 0.0690
1.6925 1.1645 0.0718
1.6975 0.9473 0.0652
1.7025 1.0253 0.0651
1.7075 1.1510 0.0704
1.7125 1.0218 0.0674
1.7175 1.1015 0.0695
1.7225 1.0585 0.0692
1.7275 1.0723 0.0673
1.7325 0.9700 0.0648
1.7375 0.9515 0.0647
1.7425 0.9108 0.0639
1.7475 0.8972 0.0633
1.7525 1.0091 0.0679
1.7575 0.9224 0.0615
1.7625 0.8660 0.0612
1.7675 0.8044 0.0598
1.7725 0.9241 0.0644
1.7775 0.8446 0.0621
1.7825 0.8460 0.0601
1.7875 0.7734 0.0576
1.7925 0.8000 0.0591
1.7975 0.7841 0.0590
1.8025 0.7454 0.0581
1.8075 0.6750 0.0555
1.8125 0.7658 0.0563
1.8175 0.6872 0.0550
1.8225 0.6831 0.0549
1.8275 0.5994 0.0520
1.8325 0.6199 0.0530
1.8375 0.5789 0.0514
1.8425 0.6464 0.0516
1.8475 0.6419 0.0533
1.8525 0.5626 0.0501
1.8575 0.5833 0.0511
1.8625 0.6098 0.0526
1.8675 0.4610 0.0448
1.8725 0.5720 0.0498
1.8775 0.6168 0.0521
1.8825 0.5692 0.0503
1.8875 0.5752 0.0510
1.8925 0.5392 0.0496
1.8975 0.5477 0.0484
1.9025 0.5291 0.0481
1.9075 0.4120 0.0427
1.9125 0.4174 0.0433
1.9175 0.3906 0.0419
1.9225 0.5071 0.0481
1.9275 0.3120 0.0368
1.9325 0.4322 0.0430
1.9375 0.3716 0.0410
1.9425 0.3770 0.0411
1.9475 0.3216 0.0384
1.9525 0.3567 0.0404
1.9575 0.4229 0.0421
1.9625 0.3407 0.0388
1.9675 0.3380 0.0385
1.9725 0.2893 0.0364
1.9775 0.3461 0.0397
1.9825 0.3415 0.0397
1.9875 0.3254 0.0371
1.9925 0.2961 0.0359
1.9975 0.3111 0.0374
2.0025 0.3033 0.0370
2.0075 0.2955 0.0366
2.0125 0.2910 0.0364
2.0175 0.3378 0.0380
2.0225 0.2646 0.0341
2.0275 0.2534 0.0336
2.0325 0.1891 0.0295
2.0375 0.2526 0.0337
2.0425 0.3001 0.0369
2.0475 0.2208 0.0309
2.0525 0.2208 0.0309
2.0575 0.2315 0.0324
2.0625 0.2475 0.0334
2.0675 0.2253 0.0319
2.0725 0.2035 0.0308
2.0775 0.2241 0.0314
2.0825 0.1923 0.0287
2.0875 0.1820 0.0284
2.0925 0.1758 0.0281
2.0975 0.1971 0.0301
2.1025 0.1736 0.0282
2.1075 0.1628 0.0271
2.1125 0.1653 0.0265
2.1175 0.1673 0.0272
2.1225 0.1725 0.0280
2.1275 0.1907 0.0294
2.1325 0.1295 0.0245
2.1375 0.0784 0.0190
2.1425 0.1251 0.0228
2.1475 0.1800 0.0281
2.1525 0.1800 0.0285
2.1575 0.1243 0.0239
2.1625 0.1390 0.0254
2.1675 0.1318 0.0245
2.1725 0.0970 0.0202
2.1775 0.1548 0.0262
2.1825 0.1261 0.0238
2.1875 0.0912 0.0204
2.1925 0.1008 0.0215
2.1975 0.0777 0.0188
2.2025 0.0770 0.0181
2.2075 0.0798 0.0188
2.2125 0.0445 0.0141
2.2175 0.0501 0.0151
2.2225 0.0595 0.0165
2.2275 0.0646 0.0173
2.2325 0.0132 0.0076
2.2375 0.0304 0.0115
2.2425 0.0045 0.0045
2.2475 0.0181 0.0090
2.2525 0.0136 0.0079
2.2575 0.0093 0.0065
2.2625 0.0092 0.0065
2.2675 0.0126 0.0073
2.2725 0.0178 0.0089
2.2775 0.0044 0.0044
2.2825 0.0046 0.0046
2.2875 0.0000 1.0000
2.2925 0.0140 0.0081
2.2975 0.0084 0.0059
2.3025 0.0088 0.0063
2.3075 0.0000 1.0000
2.3125 0.0091 0.0064
2.3175 0.0046 0.0046
2.3225 0.0000 1.0000
2.3275 0.0000 1.0000
2.3325 0.0130 0.0076
2.3375 0.0044 0.0044
2.3425 0.0090 0.0064
2.3475 0.0185 0.0092
2.3525 0.0321 0.0122
2.3575 0.0174 0.0087
2.3625 0.0085 0.0060
2.3675 0.0092 0.0065
2.3725 0.0135 0.0078
2.3775 0.0228 0.0102
2.3825 0.0138 0.0080
2.3875 0.0090 0.0064
2.3925 0.0042 0.0042
2.3975 0.0133 0.0077
2.4025 0.0045 0.0045
2.4075 0.0136 0.0079
2.4125 0.0185 0.0093
2.4175 0.0093 0.0065
2.4225 0.0166 0.0083
2.4275 0.0134 0.0077
2.4325 0.0181 0.0090
2.4375 0.0135 0.0078
2.4425 0.0046 0.0046
2.4475 0.0184 0.0092
2.4525 0.0124 0.0072
2.4575 0.0088 0.0062
2.4625 0.0088 0.0063
2.4675 0.0184 0.0092
2.4725 0.0000 1.0000
2.4775 0.0000 1.0000
2.4825 0.0084 0.0059
2.4875 0.0000 1.0000
2.4925 0.0134 0.0077
2.4975 0.0137 0.0079
2.5025 0.0046 0.0046
2.5075 0.0046 0.0046
2.5125 0.0000 1.0000
2.5175 0.0088 0.0062
2.5225 0.0136 0.0079
2.5275 0.0179 0.0089
2.5325 0.0140 0.0081
2.5375 0.0275 0.0112
2.5425 0.0082 0.0058
2.5475 0.0045 0.0045
2.5525 0.0089 0.0063
2.5575 0.0000 1.0000
2.5625 0.0000 1.0000
2.5675 0.0000 1.0000
2.5725 0.0000 1.0000
2.5775 0.0000 1.0000
2.5825 0.0000 1.0000
2.5875 0.0137 0.0079
2.5925 0.0224 0.0101
2.5975 0.0187 0.0094
2.6025 0.0080 0.0057
2.6075 0.0177 0.0089
2.6125 0.0045 0.0045
2.6175 0.0181 0.0091
2.6225 0.0046 0.0046
2.6275 0.0044 0.0044
2.6325 0.0043 0.0043
2.6375 0.0000 1.0000
2.6425 0.0045 0.0045
2.6475 0.0000 1.0000
2.6525 0.0046 0.0046
2.6575 0.0000 1.0000
2.6625 0.0043 0.0043
2.6675 0.0090 0.0064
2.6725 0.0090 0.0063
2.6775 0.0320 0.0121
2.6825 0.0229 0.0102
2.6875 0.0164 0.0082
2.6925 0.0044 0.0044
2.6975 0.0266 0.0108
0.0000 0.0000 1.0000
0.0000 0.0000 1.0000
0.0000 0.0000 1.0000
0.0000 0.0000 1.0000
0.0000 0.0000 1.0000
0.0000 0.0000 1.0000
0.0000 0.0000 1.0000
0.0000 0.0000 1.0000
0.0000 0.0000 1.0000
0.0000 0.0000 1.0000
0.0000 0.0000 1.0000
0.0000 0.0000 1.0000
0.0000 0.0000 1.0000
0.0000 0.0000 1.0000
