1.0725 0.6701 0.1404
1.0775 0.5270 0.0880
1.0825 0.6400 0.0777
1.0875 0.6122 0.0717
1.0925 0.5373 0.0638
1.0975 0.6728 0.0691
1.1025 0.7164 0.0631
1.1075 0.6803 0.0629
1.1125 0.5648 0.0554
1.1175 0.5242 0.0509
1.1225 0.7218 0.0573
1.1275 0.5918 0.0521
1.1325 0.6093 0.0523
1.1375 0.6862 0.0533
1.1425 0.7153 0.0547
1.1475 0.8172 0.0596
1.1525 0.7078 0.0556
1.1575 0.6870 0.0525
1.1625 0.6952 0.0543
1.1675 0.9061 0.0624
1.1725 0.8295 0.0594
1.1775 0.8841 0.0596
1.1825 0.8796 0.0617
1.1875 0.9278 0.0630
1.1925 0.9584 0.0631
1.1975 0.8894 0.0604
1.2025 0.9412 0.0629
1.2075 0.8799 0.0617
1.2125 0.9225 0.0614
1.2175 0.8098 0.0573
1.2225 0.8583 0.0607
1.2275 0.9216 0.0618
1.2325 0.9794 0.0636
1.2375 1.0167 0.0645
1.2425 0.9546 0.0627
1.2475 0.9743 0.0648
1.2525 1.0442 0.0652
1.2575 0.9835 0.0628
1.2625 1.0461 0.0663
1.2675 1.1752 0.0710
1.2725 0.9146 0.0610
1.2775 1.0287 0.0651
1.2825 0.9616 0.0640
1.2875 1.1489 0.0696
1.2925 1.1162 0.0689
1.2975 1.2386 0.0700
1.3025 1.3607 0.0756
1.3075 1.6700 0.0838
1.3125 1.7925 0.0877
1.3175 2.1882 0.0930
1.3225 2.5941 0.1042
1.3275 3.3130 0.1187
1.3325 3.7117 0.1262
1.3375 3.6031 0.1203
1.3425 2.9756 0.1121
1.3475 2.4642 0.1011
1.3525 1.9855 0.0929
1.3575 1.6789 0.0831
1.3625 1.3639 0.0751
1.3675 1.3298 0.0749
1.3725 1.4188 0.0774
1.3775 1.5028 0.0807
1.3825 1.6325 0.0813
1.3875 1.6620 0.0837
1.3925 1.6167 0.0826
1.3975 1.5315 0.0816
1.4025 1.6544 0.0830
1.4075 1.5997 0.0816
1.4125 1.4504 0.0781
1.4175 1.8436 0.0897
1.4225 1.9141 0.0912
1.4275 2.8580 0.1080
1.4325 5.5912 0.1530
1.4375 9.2212 0.1981
1.4425 8.6320 0.1942
1.4475 4.8399 0.1423
1.4525 2.4566 0.1014
1.4575 1.9829 0.0917
1.4625 1.7367 0.0867
1.4675 1.5974 0.0835
1.4725 1.6219 0.0820
1.4775 1.6717 0.0840
1.4825 1.5257 0.0807
1.4875 1.7009 0.0854
1.4925 1.7977 0.0890
1.4975 1.4243 0.0769
1.5025 1.3607 0.0756
1.5075 1.6148 0.0840
1.5125 1.4031 0.0779
1.5175 1.4776 0.0809
1.5225 1.7273 0.0835
1.5275 1.5338 0.0806
1.5325 1.4906 0.0812
1.5375 1.4098 0.0792
1.5425 1.4416 0.0799
1.5475 1.4804 0.0768
1.5525 1.6466 0.0844
1.5575 1.7120 0.0865
1.5625 2.1217 0.0958
1.5675 2.4935 0.1055
1.5725 2.6351 0.1039
1.5775 2.1802 0.0969
1.5825 2.1208 0.0960
1.5875 1.8899 0.0908
1.5925 1.7356 0.0882
1.5975 1.6070 0.0810
1.6025 1.5353 0.0808
1.6075 1.4478 0.0800
1.6125 1.4755 0.0810
1.6175 1.3639 0.0782
1.6225 1.4033 0.0760
1.6275 1.2818 0.0745
1.6325 1.2977 0.0748
1.6375 1.3730 0.0785
1.6425 1.0544 0.0685
1.6475 1.2923 0.0734
1.6525 1.2332 0.0727
1.6575 1.1220 0.0697
1.6625 1.1797 0.0727
1.6675 1.1562 0.0717
1.6725 1.2986 0.0743
1.6775 1.2491 0.0731
1.6825 1.1712 0.0715
1.6875 1.3453 0.0777
1.6925 1.4873 0.0811
1.6975 1.7050 0.0874
1.7025 2.3517 0.0986
1.7075 2.8507 0.1108
1.7125 3.6002 0.1265
1.7175 3.4963 0.1238
1.7225 2.8235 0.1130
1.7275 2.3017 0.0985
1.7325 1.8178 0.0887
1.7375 1.4106 0.0788
1.7425 1.1079 0.0705
1.7475 1.1611 0.0720
1.7525 1.0726 0.0700
1.7575 0.9468 0.0623
1.7625 0.8962 0.0623
1.7675 0.9734 0.0658
1.7725 0.8702 0.0625
1.7775 0.7632 0.0590
1.7825 0.8844 0.0615
1.7875 0.8201 0.0593
1.7925 0.7737 0.0581
1.7975 0.8599 0.0618
1.8025 0.7095 0.0567
1.8075 0.7474 0.0584
1.8125 0.7207 0.0546
1.8175 0.6782 0.0547
1.8225 0.7091 0.0559
1.8275 0.6793 0.0553
1.8325 0.6198 0.0530
1.8375 0.6024 0.0524
1.8425 0.6634 0.0523
1.8475 0.6326 0.0529
1.8525 0.6161 0.0524
1.8575 0.5471 0.0495
1.8625 0.5323 0.0492
1.8675 0.5219 0.0476
1.8725 0.5803 0.0501
1.8775 0.5465 0.0491
1.8825 0.5606 0.0499
1.8875 0.5933 0.0518
1.8925 0.5350 0.0494
1.8975 0.5557 0.0487
1.9025 0.4901 0.0463
1.9075 0.4696 0.0456
1.9125 0.5025 0.0475
1.9175 0.5436 0.0494
1.9225 0.5663 0.0509
1.9275 0.4982 0.0464
1.9325 0.4795 0.0453
1.9375 0.5207 0.0485
1.9425 0.5342 0.0489
1.9475 0.4543 0.0457
1.9525 0.3797 0.0416
1.9575 0.3892 0.0404
1.9625 0.4077 0.0425
1.9675 0.5047 0.0470
1.9725 0.4317 0.0445
1.9775 0.3778 0.0414
1.9825 0.4062 0.0433
1.9875 0.4095 0.0416
1.9925 0.3697 0.0401
1.9975 0.4060 0.0428
2.0025 0.4394 0.0446
2.0075 0.4140 0.0434
2.0125 0.3001 0.0369
2.0175 0.4704 0.0448
2.0225 0.4228 0.0432
2.0275 0.4444 0.0444
2.0325 0.4014 0.0430
2.0375 0.3651 0.0406
2.0425 0.3635 0.0406
2.0475 0.3634 0.0397
2.0525 0.2900 0.0354
2.0575 0.2901 0.0362
2.0625 0.3063 0.0371
2.0675 0.2751 0.0353
2.0725 0.2132 0.0315
2.0775 0.2863 0.0355
2.0825 0.2261 0.0311
2.0875 0.2756 0.0350
2.0925 0.2204 0.0315
2.0975 0.1788 0.0286
2.1025 0.2378 0.0330
2.1075 0.2174 0.0314
2.1125 0.1821 0.0278
2.1175 0.2023 0.0299
2.1225 0.1821 0.0288
2.1275 0.1999 0.0301
2.1325 0.1065 0.0222
2.1375 0.1706 0.0280
2.1425 0.1501 0.0250
2.1475 0.1316 0.0240
2.1525 0.1530 0.0263
2.1575 0.1523 0.0265
2.1625 0.1712 0.0282
2.1675 0.1544 0.0265
2.1725 0.1095 0.0215
2.1775 0.1108 0.0221
2.1825 0.1260 0.0238
2.1875 0.1143 0.0228
2.1925 0.1517 0.0264
2.1975 0.1049 0.0219
2.2025 0.0684 0.0171
2.2075 0.0796 0.0188
2.2125 0.0801 0.0189
2.2175 0.0228 0.0102
2.2225 0.0410 0.0137
2.2275 0.0461 0.0146
2.2325 0.0219 0.0098
2.2375 0.0217 0.0097
2.2425 0.0089 0.0063
2.2475 0.0225 0.0101
2.2525 0.0091 0.0064
2.2575 0.0185 0.0092
2.2625 0.0046 0.0046
2.2675 0.0042 0.0042
2.2725 0.0133 0.0077
2.2775 0.0000 1.0000
2.2825 0.0000 1.0000
2.2875 0.0046 0.0046
2.2925 0.0000 1.0000
2.2975 0.0000 1.0000
2.3025 0.0133 0.0077
2.3075 0.0267 0.0109
2.3125 0.0136 0.0079
2.3175 0.0278 0.0113
2.3225 0.0232 0.0104
2.3275 0.0130 0.0074
2.3325 0.0044 0.0044
2.3375 0.0088 0.0062
2.3425 0.0180 0.0091
2.3475 0.0229 0.0103
2.3525 0.0000 1.0000
2.3575 0.0000 1.0000
2.3625 0.0000 1.0000
2.3675 0.0091 0.0064
2.3725 0.0135 0.0078
2.3775 0.0183 0.0091
2.3825 0.0046 0.0046
2.3875 0.0090 0.0064
2.3925 0.0168 0.0084
2.3975 0.0089 0.0063
2.4025 0.0226 0.0101
2.4075 0.0000 1.0000
2.4125 0.0046 0.0046
2.4175 0.0000 1.0000
2.4225 0.0125 0.0072
2.4275 0.0089 0.0063
2.4325 0.0181 0.0090
2.4375 0.0090 0.0064
2.4425 0.0093 0.0066
2.4475 0.0000 1.0000
2.4525 0.0000 1.0000
2.4575 0.0088 0.0062
2.4625 0.0045 0.0045
2.4675 0.0000 1.0000
2.4725 0.0046 0.0046
2.4775 0.0092 0.0065
2.4825 0.0084 0.0059
2.4875 0.0000 1.0000
2.4925 0.0045 0.0045
2.4975 0.0046 0.0046
2.5025 0.0366 0.0130
2.5075 0.0185 0.0092
2.5125 0.0000 1.0000
2.5175 0.0044 0.0044
2.5225 0.0045 0.0045
2.5275 0.0000 1.0000
2.5325 0.0047 0.0047
2.5375 0.0092 0.0065
2.5425 0.0083 0.0058
2.5475 0.0222 0.0099
2.5525 0.0089 0.0063
2.5575 0.0045 0.0045
2.5625 0.0045 0.0046
2.5675 0.0092 0.0065
2.5725 0.0083 0.0059
2.5775 0.0265 0.0108
2.5825 0.0314 0.0119
2.5875 0.0319 0.0121
2.5925 0.0090 0.0064
2.5975 0.0046 0.0047
2.6025 0.0000 1.0000
2.6075 0.0000 1.0000
2.6125 0.0000 1.0000
2.6175 0.0000 1.0000
2.6225 0.0046 0.0046
2.6275 0.0000 1.0000
2.6325 0.0000 1.0000
2.6375 0.0000 1.0000
2.6425 0.0045 0.0045
2.6475 0.0000 1.0000
2.6525 0.0000 1.0000
2.6575 0.0000 1.0000
2.6625 0.0000 1.0000
2.6675 0.0045 0.0045
2.6725 0.0045 0.0045
2.6775 0.0000 1.0000
2.6825 0.0091 0.0065
2.6875 0.0000 1.0000
2.6925 0.0132 0.0076
2.6975 0.0000 1.0000
0.0000 0.0000 1.0000
0.0000 0.0000 1.0000
0.0000 0.0000 1.0000
0.0000 0.0000 1.0000
0.0000 0.0000 1.0000
0.0000 0.0000 1.0000
0.0000 0.0000 1.0000
0.0000 0.0000 1.0000
0.0000 0.0000 1.0000
0.0000 0.0000 1.0000
0.0000 0.0000 1.0000
0.0000 0.0000 1.0000
0.0000 0.0000 1.0000
0.0000 0.0000 1.0000
