1.0725 1.1060 0.1804
1.0775 0.8628 0.1126
1.0825 0.7998 0.0869
1.0875 0.7208 0.0778
1.0925 0.8092 0.0783
1.0975 0.6160 0.0661
1.1025 0.8382 0.0682
1.1075 0.9472 0.0742
1.1125 0.8912 0.0696
1.1175 0.8712 0.0657
1.1225 0.9990 0.0674
1.1275 0.8204 0.0613
1.1325 0.8964 0.0634
1.1375 0.9511 0.0627
1.1425 1.0338 0.0658
1.1475 0.8127 0.0594
1.1525 0.9864 0.0656
1.1575 0.9312 0.0612
1.1625 0.9446 0.0633
1.1675 1.0774 0.0680
1.1725 0.9147 0.0624
1.1775 0.9363 0.0613
1.1825 0.9704 0.0648
1.1875 0.9920 0.0651
1.1925 1.1043 0.0677
1.1975 1.1434 0.0685
1.2025 1.1218 0.0687
1.2075 1.0434 0.0672
1.2125 1.0565 0.0657
1.2175 1.1542 0.0684
1.2225 1.3092 0.0750
1.2275 1.3283 0.0742
1.2325 1.3265 0.0740
1.2375 1.2423 0.0714
1.2425 1.1882 0.0699
1.2475 1.3232 0.0755
1.2525 1.3857 0.0751
1.2575 1.2807 0.0717
1.2625 1.3101 0.0742
1.2675 1.2910 0.0744
1.2725 1.3862 0.0751
1.2775 1.1935 0.0701
1.2825 1.3528 0.0759
1.2875 1.4703 0.0788
1.2925 1.3519 0.0758
1.2975 1.4228 0.0750
1.3025 1.3525 0.0754
1.3075 1.3710 0.0759
1.3125 1.3804 0.0770
1.3175 1.5375 0.0780
1.3225 1.3553 0.0753
1.3275 1.4925 0.0797
1.3325 1.5445 0.0814
1.3375 1.5129 0.0779
1.3425 1.6482 0.0834
1.3475 1.5223 0.0795
1.3525 1.6251 0.0841
1.3575 1.5914 0.0809
1.3625 1.6613 0.0829
1.3675 1.6881 0.0844
1.3725 1.6588 0.0837
1.3775 1.7281 0.0865
1.3825 1.7653 0.0845
1.3875 1.6457 0.0833
1.3925 1.6166 0.0826
1.3975 1.7616 0.0875
1.4025 1.8337 0.0874
1.4075 1.7743 0.0860
1.4125 1.6980 0.0845
1.4175 1.7821 0.0882
1.4225 1.8398 0.0894
1.4275 1.8215 0.0862
1.4325 1.8379 0.0877
1.4375 1.8938 0.0898
1.4425 1.8962 0.0910
1.4475 1.8612 0.0882
1.4525 1.6693 0.0836
1.4575 1.7671 0.0865
1.4625 1.9490 0.0919
1.4675 1.9229 0.0916
1.4725 1.9498 0.0899
1.4775 1.7013 0.0847
1.4825 1.8897 0.0899
1.4875 1.9027 0.0904
1.4925 1.7710 0.0883
1.4975 1.8112 0.0867
1.5025 1.7569 0.0859
1.5075 1.7071 0.0863
1.5125 1.8197 0.0888
1.5175 1.7785 0.0887
1.5225 1.8115 0.0855
1.5275 1.8476 0.0885
1.5325 1.7911 0.0890
1.5375 1.7351 0.0878
1.5425 1.8138 0.0896
1.5475 1.7230 0.0829
1.5525 1.6820 0.0853
1.5575 1.6523 0.0849
1.5625 1.6753 0.0852
1.5675 1.6415 0.0856
1.5725 1.6686 0.0827
1.5775 1.5524 0.0818
1.5825 1.7594 0.0875
1.5875 1.7059 0.0863
1.5925 1.5521 0.0834
1.5975 1.5710 0.0801
1.6025 1.4808 0.0794
1.6075 1.6858 0.0864
1.6125 1.5780 0.0837
1.6175 1.3767 0.0786
1.6225 1.5475 0.0798
1.6275 1.4154 0.0783
1.6325 1.5304 0.0812
1.6375 1.4309 0.0801
1.6425 1.3382 0.0771
1.6475 1.4090 0.0766
1.6525 1.3525 0.0762
1.6575 1.3901 0.0776
1.6625 1.4312 0.0801
1.6675 1.3120 0.0764
1.6725 1.1964 0.0714
1.6775 1.3210 0.0751
1.6825 1.2358 0.0735
1.6875 1.3456 0.0777
1.6925 1.1988 0.0728
1.6975 1.1265 0.0711
1.7025 1.0505 0.0659
1.7075 1.1813 0.0714
1.7125 1.1599 0.0718
1.7175 1.2151 0.0730
1.7225 1.0675 0.0695
1.7275 1.0300 0.0659
1.7325 1.0953 0.0689
1.7375 1.1281 0.0705
1.7425 0.9508 0.0653
1.7475 1.0490 0.0684
1.7525 0.9591 0.0662
1.7575 0.9762 0.0633
1.7625 0.8917 0.0621
1.7675 1.0045 0.0668
1.7725 0.8429 0.0615
1.7775 0.7628 0.0590
1.7825 0.8419 0.0600
1.7875 0.8678 0.0610
1.7925 0.8524 0.0610
1.7975 0.7578 0.0580
1.8025 0.8049 0.0604
1.8075 0.6693 0.0553
1.8125 0.7458 0.0555
1.8175 0.7636 0.0580
1.8225 0.7321 0.0568
1.8275 0.7154 0.0568
1.8325 0.6969 0.0562
1.8375 0.5661 0.0508
1.8425 0.6588 0.0521
1.8475 0.7923 0.0592
1.8525 0.7052 0.0561
1.8575 0.6692 0.0548
1.8625 0.7004 0.0564
1.8675 0.5133 0.0472
1.8725 0.6149 0.0516
1.8775 0.6386 0.0530
1.8825 0.5871 0.0511
1.8875 0.5841 0.0514
1.8925 0.4433 0.0450
1.8975 0.5000 0.0462
1.9025 0.6033 0.0513
1.9075 0.4388 0.0441
1.9125 0.4893 0.0468
1.9175 0.4355 0.0442
1.9225 0.3884 0.0421
1.9275 0.5373 0.0482
1.9325 0.4063 0.0417
1.9375 0.4442 0.0448
1.9425 0.4357 0.0442
1.9475 0.3671 0.0410
1.9525 0.5301 0.0492
1.9575 0.4022 0.0410
1.9625 0.4077 0.0425
1.9675 0.4215 0.0430
1.9725 0.3952 0.0426
1.9775 0.3415 0.0394
1.9825 0.3831 0.0420
1.9875 0.4096 0.0416
1.9925 0.3525 0.0391
1.9975 0.4146 0.0432
2.0025 0.3352 0.0389
2.0075 0.3505 0.0399
2.0125 0.3183 0.0380
2.0175 0.3293 0.0375
2.0225 0.3084 0.0369
2.0275 0.3110 0.0372
2.0325 0.2812 0.0360
2.0375 0.2703 0.0349
2.0425 0.2910 0.0364
2.0475 0.2383 0.0321
2.0525 0.2598 0.0335
2.0575 0.2358 0.0327
2.0625 0.2337 0.0324
2.0675 0.2074 0.0306
2.0725 0.2222 0.0321
2.0775 0.2953 0.0361
2.0825 0.2305 0.0314
2.0875 0.2176 0.0311
2.0925 0.1936 0.0295
2.0975 0.2475 0.0337
2.1025 0.1644 0.0274
2.1075 0.1628 0.0271
2.1125 0.1905 0.0284
2.1175 0.2377 0.0324
2.1225 0.1727 0.0280
2.1275 0.1632 0.0272
2.1325 0.2083 0.0311
2.1375 0.1613 0.0273
2.1425 0.1457 0.0246
2.1475 0.1842 0.0284
2.1525 0.2029 0.0302
2.1575 0.2164 0.0316
2.1625 0.1346 0.0250
2.1675 0.1725 0.0280
2.1725 0.1606 0.0260
2.1775 0.1149 0.0225
2.1825 0.1217 0.0234
2.1875 0.1096 0.0224
2.1925 0.0688 0.0178
2.1975 0.1323 0.0246
2.2025 0.0514 0.0148
2.2075 0.0751 0.0182
2.2125 0.0578 0.0160
2.2175 0.0594 0.0165
2.2225 0.0457 0.0144
2.2275 0.0323 0.0122
2.2325 0.0263 0.0107
2.2375 0.0436 0.0138
2.2425 0.0224 0.0100
2.2475 0.0181 0.0090
2.2525 0.0183 0.0091
2.2575 0.0000 1.0000
2.2625 0.0138 0.0080
2.2675 0.0084 0.0060
2.2725 0.0088 0.0063
2.2775 0.0045 0.0044
2.2825 0.0092 0.0065
2.2875 0.0184 0.0092
2.2925 0.0093 0.0066
2.2975 0.0042 0.0042
2.3025 0.0133 0.0077
2.3075 0.0044 0.0044
2.3125 0.0091 0.0064
2.3175 0.0046 0.0046
2.3225 0.0093 0.0066
2.3275 0.0043 0.0043
2.3325 0.0000 1.0000
2.3375 0.0044 0.0044
2.3425 0.0046 0.0046
2.3475 0.0182 0.0092
2.3525 0.0091 0.0065
2.3575 0.0044 0.0044
2.3625 0.0085 0.0060
2.3675 0.0092 0.0065
2.3725 0.0000 1.0000
2.3775 0.0137 0.0079
2.3825 0.0184 0.0092
2.3875 0.0091 0.0064
2.3925 0.0042 0.0042
2.3975 0.0044 0.0044
2.4025 0.0045 0.0045
2.4075 0.0000 1.0000
2.4125 0.0000 1.0000
2.4175 0.0046 0.0046
2.4225 0.0083 0.0059
2.4275 0.0000 1.0000
2.4325 0.0090 0.0064
2.4375 0.0000 1.0000
2.4425 0.0000 1.0000
2.4475 0.0046 0.0046
2.4525 0.0083 0.0059
2.4575 0.0177 0.0089
2.4625 0.0133 0.0077
2.4675 0.0184 0.0092
2.4725 0.0183 0.0091
2.4775 0.0000 1.0000
2.4825 0.0042 0.0042
2.4875 0.0088 0.0062
2.4925 0.0135 0.0078
2.4975 0.0091 0.0064
2.5025 0.0092 0.0065
2.5075 0.0046 0.0046
2.5125 0.0042 0.0042
2.5175 0.0088 0.0062
2.5225 0.0046 0.0045
2.5275 0.0045 0.0045
2.5325 0.0047 0.0047
2.5375 0.0046 0.0046
2.5425 0.0041 0.0041
2.5475 0.0134 0.0077
2.5525 0.0222 0.0100
2.5575 0.0045 0.0046
2.5625 0.0091 0.0064
2.5675 0.0138 0.0080
2.5725 0.0248 0.0101
2.5775 0.0088 0.0062
2.5825 0.0090 0.0064
2.5875 0.0137 0.0079
2.5925 0.0135 0.0078
2.5975 0.0187 0.0094
2.6025 0.0041 0.0041
2.6075 0.0045 0.0045
2.6125 0.0000 1.0000
2.6175 0.0045 0.0045
2.6225 0.0092 0.0065
2.6275 0.0132 0.0076
2.6325 0.0085 0.0060
2.6375 0.0133 0.0077
2.6425 0.0135 0.0078
2.6475 0.0000 1.0000
2.6525 0.0000 1.0000
2.6575 0.0000 1.0000
2.6625 0.0000 1.0000
2.6675 0.0000 1.0000
2.6725 0.0045 0.0045
2.6775 0.0000 1.0000
2.6825 0.0046 0.0046
2.6875 0.0082 0.0058
2.6925 0.0000 1.0000
2.6975 0.0088 0.0063
0.0000 0.0000 1.0000
0.0000 0.0000 1.0000
0.0000 0.0000 1.0000
0.0000 0.0000 1.0000
0.0000 0.0000 1.0000
0.0000 0.0000 1.0000
0.0000 0.0000 1.0000
0.0000 0.0000 1.0000
0.0000 0.0000 1.0000
0.0000 0.0000 1.0000
0.0000 0.0000 1.0000
0.0000 0.0000 1.0000
0.0000 0.0000 1.0000
0.0000 0.0000 1.0000
