1.0725 0.8730 0.1602
1.0775 0.9941 0.1209
1.0825 0.8944 0.0919
1.0875 0.8135 0.0827
1.0925 0.7797 0.0769
1.0975 0.8570 0.0780
1.1025 0.6435 0.0598
1.1075 0.8197 0.0690
1.1125 0.8479 0.0679
1.1175 0.8258 0.0639
1.1225 0.9990 0.0674
1.1275 0.7971 0.0605
1.1325 0.8922 0.0633
1.1375 0.9014 0.0610
1.1425 0.9209 0.0621
1.1475 0.8524 0.0609
1.1525 0.9733 0.0652
1.1575 0.9516 0.0618
1.1625 0.9913 0.0648
1.1675 0.9138 0.0626
1.1725 0.9872 0.0648
1.1775 0.9527 0.0619
1.1825 1.0012 0.0658
1.1875 1.0008 0.0654
1.1925 1.0334 0.0655
1.1975 0.9386 0.0620
1.2025 1.0091 0.0651
1.2075 1.1260 0.0698
1.2125 1.0815 0.0664
1.2175 1.0687 0.0658
1.2225 1.3047 0.0748
1.2275 1.0382 0.0656
1.2325 1.1154 0.0679
1.2375 1.2423 0.0714
1.2425 1.0743 0.0665
1.2475 1.2544 0.0735
1.2525 1.2229 0.0705
1.2575 1.2049 0.0696
1.2625 1.1095 0.0683
1.2675 1.2268 0.0726
1.2725 1.1464 0.0683
1.2775 1.4077 0.0761
1.2825 1.2764 0.0737
1.2875 1.2539 0.0727
1.2925 1.2321 0.0724
1.2975 1.3254 0.0724
1.3025 1.4875 0.0791
1.3075 1.3601 0.0756
1.3125 1.3766 0.0769
1.3175 1.5337 0.0779
1.3225 1.4025 0.0766
1.3275 1.3354 0.0754
1.3325 1.3646 0.0765
1.3375 1.3721 0.0742
1.3425 1.3239 0.0747
1.3475 1.4644 0.0779
1.3525 1.6291 0.0842
1.3575 1.5710 0.0804
1.3625 1.6204 0.0818
1.3675 1.4229 0.0775
1.3725 1.5828 0.0817
1.3775 1.4730 0.0799
1.3825 1.3971 0.0752
1.3875 1.4639 0.0786
1.3925 1.7558 0.0861
1.3975 1.5271 0.0815
1.4025 1.5289 0.0798
1.4075 1.6493 0.0829
1.4125 1.7053 0.0846
1.4175 1.7436 0.0873
1.4225 1.7351 0.0869
1.4275 1.4825 0.0778
1.4325 1.5573 0.0807
1.4375 1.6547 0.0839
1.4425 1.5948 0.0835
1.4475 1.6732 0.0837
1.4525 1.6192 0.0823
1.4575 1.8642 0.0889
1.4625 1.5891 0.0829
1.4675 1.6070 0.0838
1.4725 1.7469 0.0851
1.4775 1.7222 0.0852
1.4825 1.6590 0.0842
1.4875 1.7175 0.0859
1.4925 1.7138 0.0869
1.4975 1.7439 0.0851
1.5025 1.6263 0.0827
1.5075 1.6243 0.0842
1.5125 1.5898 0.0830
1.5175 1.7912 0.0890
1.5225 1.4523 0.0765
1.5275 1.5467 0.0810
1.5325 1.4636 0.0805
1.5375 1.5783 0.0838
1.5425 1.5797 0.0836
1.5475 1.5765 0.0793
1.5525 1.5346 0.0815
1.5575 1.6340 0.0845
1.5625 1.4982 0.0805
1.5675 1.5882 0.0842
1.5725 1.4579 0.0773
1.5775 1.3872 0.0773
1.5825 1.4596 0.0797
1.5875 1.5460 0.0822
1.5925 1.3274 0.0772
1.5975 1.4848 0.0778
1.6025 1.4717 0.0791
1.6075 1.3806 0.0782
1.6125 1.3338 0.0770
1.6175 1.4938 0.0818
1.6225 1.3253 0.0738
1.6275 1.3817 0.0773
1.6325 1.5134 0.0808
1.6375 1.2421 0.0746
1.6425 1.2851 0.0756
1.6475 1.2379 0.0718
1.6525 1.1250 0.0695
1.6575 1.1862 0.0717
1.6625 1.2382 0.0745
1.6675 1.1918 0.0728
1.6725 1.1754 0.0707
1.6775 1.2106 0.0719
1.6825 1.1574 0.0711
1.6875 1.1073 0.0705
1.6925 1.1198 0.0704
1.6975 1.0990 0.0702
1.7025 1.0997 0.0674
1.7075 0.8884 0.0619
1.7125 1.1199 0.0706
1.7175 0.9080 0.0631
1.7225 0.9143 0.0643
1.7275 0.9797 0.0643
1.7325 0.9868 0.0654
1.7375 0.9913 0.0661
1.7425 0.8119 0.0603
1.7475 0.9201 0.0641
1.7525 0.9406 0.0655
1.7575 0.8861 0.0603
1.7625 0.9091 0.0627
1.7675 0.9113 0.0636
1.7725 0.9011 0.0636
1.7775 0.7813 0.0597
1.7825 0.7910 0.0581
1.7875 0.8373 0.0599
1.7925 0.7780 0.0583
1.7975 0.6961 0.0556
1.8025 0.7279 0.0574
1.8075 0.8071 0.0607
1.8125 0.7205 0.0546
1.8175 0.7395 0.0571
1.8225 0.6296 0.0527
1.8275 0.5906 0.0516
1.8325 0.6780 0.0554
1.8375 0.6204 0.0532
1.8425 0.6297 0.0509
1.8475 0.6769 0.0547
1.8525 0.6334 0.0532
1.8575 0.6325 0.0533
1.8625 0.5918 0.0519
1.8675 0.6222 0.0520
1.8725 0.6408 0.0527
1.8775 0.5027 0.0471
1.8825 0.4982 0.0471
1.8875 0.5796 0.0512
1.8925 0.5212 0.0488
1.8975 0.4872 0.0456
1.9025 0.4895 0.0462
1.9075 0.4297 0.0436
1.9125 0.4848 0.0466
1.9175 0.4667 0.0457
1.9225 0.5347 0.0494
1.9275 0.4421 0.0437
1.9325 0.4536 0.0440
1.9375 0.4626 0.0458
1.9425 0.4399 0.0444
1.9475 0.4407 0.0450
1.9525 0.3975 0.0426
1.9575 0.3687 0.0393
1.9625 0.3854 0.0413
1.9675 0.3905 0.0414
1.9725 0.3810 0.0418
1.9775 0.3960 0.0424
1.9825 0.3786 0.0418
1.9875 0.3888 0.0405
1.9925 0.3656 0.0399
1.9975 0.3470 0.0395
2.0025 0.3263 0.0384
2.0075 0.3185 0.0380
2.0125 0.2730 0.0352
2.0175 0.2906 0.0352
2.0225 0.2464 0.0329
2.0275 0.2713 0.0347
2.0325 0.3323 0.0391
2.0375 0.2702 0.0349
2.0425 0.2546 0.0340
2.0475 0.2296 0.0315
2.0525 0.2600 0.0335
2.0575 0.2854 0.0359
2.0625 0.2339 0.0325
2.0675 0.2615 0.0344
2.0725 0.2313 0.0328
2.0775 0.3216 0.0376
2.0825 0.2225 0.0308
2.0875 0.2084 0.0304
2.0925 0.2752 0.0352
2.0975 0.1972 0.0301
2.1025 0.1962 0.0299
2.1075 0.2037 0.0304
2.1125 0.1610 0.0261
2.1175 0.2596 0.0338
2.1225 0.1679 0.0276
2.1275 0.1225 0.0236
2.1325 0.1203 0.0236
2.1375 0.1614 0.0273
2.1425 0.1667 0.0264
2.1475 0.1887 0.0288
2.1525 0.1619 0.0270
2.1575 0.1474 0.0261
2.1625 0.1760 0.0285
2.1675 0.1863 0.0291
2.1725 0.1096 0.0215
2.1775 0.1902 0.0290
2.1825 0.1261 0.0238
2.1875 0.1507 0.0262
2.1925 0.0780 0.0189
2.1975 0.1188 0.0233
2.2025 0.1283 0.0234
2.2075 0.0575 0.0159
2.2125 0.0534 0.0154
2.2175 0.0596 0.0165
2.2225 0.0457 0.0144
2.2275 0.0600 0.0166
2.2325 0.0702 0.0175
2.2375 0.0784 0.0185
2.2425 0.0314 0.0119
2.2475 0.0272 0.0111
2.2525 0.0273 0.0111
2.2575 0.0323 0.0122
2.2625 0.0322 0.0122
2.2675 0.0208 0.0093
2.2725 0.0222 0.0099
2.2775 0.0221 0.0099
2.2825 0.0323 0.0122
2.2875 0.0276 0.0113
2.2925 0.0233 0.0104
2.2975 0.0292 0.0110
2.3025 0.0311 0.0118
2.3075 0.0044 0.0044
2.3125 0.0000 1.0000
2.3175 0.0046 0.0046
2.3225 0.0000 1.0000
2.3275 0.0000 1.0000
2.3325 0.0087 0.0062
2.3375 0.0133 0.0077
2.3425 0.0136 0.0079
2.3475 0.0000 1.0000
2.3525 0.0047 0.0046
2.3575 0.0262 0.0107
2.3625 0.0000 1.0000
2.3675 0.0045 0.0046
2.3725 0.0271 0.0110
2.3775 0.0091 0.0064
2.3825 0.0000 1.0000
2.3875 0.0045 0.0045
2.3925 0.0000 1.0000
2.3975 0.0000 1.0000
2.4025 0.0046 0.0045
2.4075 0.0046 0.0046
2.4125 0.0000 1.0000
2.4175 0.0138 0.0080
2.4225 0.0041 0.0041
2.4275 0.0134 0.0077
2.4325 0.0045 0.0045
2.4375 0.0090 0.0064
2.4425 0.0092 0.0065
2.4475 0.0046 0.0046
2.4525 0.0000 1.0000
2.4575 0.0088 0.0063
2.4625 0.0045 0.0045
2.4675 0.0000 1.0000
2.4725 0.0000 1.0000
2.4775 0.0000 1.0000
2.4825 0.0000 1.0000
2.4875 0.0088 0.0062
2.4925 0.0269 0.0110
2.4975 0.0183 0.0091
2.5025 0.0458 0.0145
2.5075 0.0092 0.0065
2.5125 0.0126 0.0073
2.5175 0.0088 0.0062
2.5225 0.0226 0.0101
2.5275 0.0357 0.0126
2.5325 0.0327 0.0124
2.5375 0.0229 0.0103
2.5425 0.0082 0.0058
2.5475 0.0000 1.0000
2.5525 0.0090 0.0063
2.5575 0.0046 0.0046
2.5625 0.0000 1.0000
2.5675 0.0138 0.0080
2.5725 0.0041 0.0041
2.5775 0.0132 0.0076
2.5825 0.0045 0.0045
2.5875 0.0091 0.0065
2.5925 0.0000 1.0000
2.5975 0.0000 1.0000
2.6025 0.0000 1.0000
2.6075 0.0044 0.0044
2.6125 0.0224 0.0100
2.6175 0.0137 0.0079
2.6225 0.0137 0.0079
2.6275 0.0087 0.0062
2.6325 0.0000 1.0000
2.6375 0.0000 1.0000
2.6425 0.0136 0.0078
2.6475 0.0045 0.0045
2.6525 0.0139 0.0080
2.6575 0.0042 0.0042
2.6625 0.0000 1.0000
2.6675 0.0000 1.0000
2.6725 0.0045 0.0045
2.6775 0.0000 1.0000
2.6825 0.0000 1.0000
2.6875 0.0123 0.0071
2.6925 0.0176 0.0088
2.6975 0.0355 0.0125
0.0000 0.0000 1.0000
0.0000 0.0000 1.0000
0.0000 0.0000 1.0000
0.0000 0.0000 1.0000
0.0000 0.0000 1.0000
0.0000 0.0000 1.0000
0.0000 0.0000 1.0000
0.0000 0.0000 1.0000
0.0000 0.0000 1.0000
0.0000 0.0000 1.0000
0.0000 0.0000 1.0000
0.0000 0.0000 1.0000
0.0000 0.0000 1.0000
0.0000 0.0000 1.0000
