1.0725 0.5243 0.1242
1.0775 0.8056 0.1088
1.0825 0.8745 0.0908
1.0875 0.8055 0.0823
1.0925 0.8540 0.0804
1.0975 0.7429 0.0726
1.1025 0.8326 0.0680
1.1075 0.9006 0.0724
1.1125 0.7987 0.0659
1.1175 0.8360 0.0643
1.1225 0.8271 0.0613
1.1275 0.8708 0.0632
1.1325 0.8202 0.0606
1.1375 0.8964 0.0609
1.1425 0.8251 0.0588
1.1475 0.9609 0.0646
1.1525 0.8993 0.0627
1.1575 0.7787 0.0559
1.1625 0.8897 0.0614
1.1675 0.9192 0.0628
1.1725 0.9276 0.0628
1.1775 1.0566 0.0651
1.1825 1.0787 0.0683
1.1875 0.9451 0.0636
1.1925 1.0914 0.0673
1.1975 1.0738 0.0663
1.2025 0.9582 0.0635
1.2075 1.1305 0.0700
1.2125 1.2247 0.0707
1.2175 1.0487 0.0652
1.2225 1.0259 0.0664
1.2275 1.1656 0.0695
1.2325 1.0541 0.0660
1.2375 1.0988 0.0671
1.2425 1.1808 0.0697
1.2475 1.1592 0.0707
1.2525 1.0074 0.0640
1.2575 1.2404 0.0706
1.2625 1.2599 0.0728
1.2675 1.3418 0.0759
1.2725 1.2721 0.0719
1.2775 1.2797 0.0726
1.2825 1.1233 0.0691
1.2875 1.3051 0.0742
1.2925 1.3457 0.0757
1.2975 1.3213 0.0723
1.3025 1.3228 0.0746
1.3075 1.3427 0.0751
1.3125 1.2705 0.0738
1.3175 1.3198 0.0722
1.3225 1.3008 0.0738
1.3275 1.2976 0.0743
1.3325 1.3083 0.0749
1.3375 1.6499 0.0814
1.3425 1.5883 0.0819
1.3475 1.4272 0.0770
1.3525 1.5648 0.0825
1.3575 1.4403 0.0770
1.3625 1.6034 0.0814
1.3675 1.5663 0.0813
1.3725 1.6583 0.0836
1.3775 1.4768 0.0800
1.3825 1.5829 0.0801
1.3875 1.5104 0.0798
1.3925 1.5998 0.0822
1.3975 1.5312 0.0816
1.4025 1.6082 0.0819
1.4075 1.5711 0.0809
1.4125 1.4501 0.0781
1.4175 1.7433 0.0872
1.4225 1.8059 0.0886
1.4275 1.6250 0.0814
1.4325 1.6700 0.0836
1.4375 1.5194 0.0804
1.4425 1.6066 0.0838
1.4475 1.6229 0.0824
1.4525 1.7824 0.0864
1.4575 1.5980 0.0823
1.4625 1.8060 0.0884
1.4675 1.6073 0.0838
1.4725 1.7547 0.0853
1.4775 1.6792 0.0842
1.4825 1.5598 0.0816
1.4875 1.6672 0.0846
1.4925 1.6429 0.0851
1.4975 1.7073 0.0842
1.5025 1.6804 0.0840
1.5075 1.6547 0.0850
1.5125 1.6111 0.0835
1.5175 1.5605 0.0831
1.5225 1.6377 0.0813
1.5275 1.5686 0.0815
1.5325 1.5440 0.0827
1.5375 1.6099 0.0846
1.5425 1.5794 0.0836
1.5475 1.4887 0.0770
1.5525 1.5690 0.0824
1.5575 1.6339 0.0845
1.5625 1.4803 0.0801
1.5675 1.4143 0.0795
1.5725 1.6221 0.0815
1.5775 1.4085 0.0779
1.5825 1.4731 0.0800
1.5875 1.4753 0.0803
1.5925 1.5621 0.0837
1.5975 1.4931 0.0781
1.6025 1.4123 0.0775
1.6075 1.3587 0.0775
1.6125 1.4936 0.0815
1.6175 1.3403 0.0775
1.6225 1.3296 0.0740
1.6275 1.3599 0.0767
1.6325 1.2373 0.0730
1.6375 1.2068 0.0736
1.6425 1.3161 0.0765
1.6475 1.1542 0.0693
1.6525 1.2073 0.0720
1.6575 1.2213 0.0727
1.6625 1.1667 0.0723
1.6675 1.1126 0.0703
1.6725 1.2137 0.0719
1.6775 1.2269 0.0724
1.6825 1.2110 0.0727
1.6875 1.0581 0.0689
1.6925 1.1816 0.0723
1.6975 1.0946 0.0701
1.7025 1.0542 0.0660
1.7075 1.0088 0.0659
1.7125 1.0886 0.0696
1.7175 0.8772 0.0620
1.7225 0.9905 0.0669
1.7275 0.9544 0.0635
1.7325 0.8876 0.0620
1.7375 1.0571 0.0682
1.7425 0.9055 0.0637
1.7475 0.8798 0.0627
1.7525 0.8813 0.0634
1.7575 0.8361 0.0585
1.7625 0.9003 0.0624
1.7675 0.8718 0.0622
1.7725 0.9017 0.0636
1.7775 0.7306 0.0578
1.7825 0.6921 0.0544
1.7875 0.7257 0.0558
1.7925 0.7256 0.0563
1.7975 0.7539 0.0579
1.8025 0.8180 0.0608
1.8075 0.7146 0.0571
1.8125 0.7415 0.0554
1.8175 0.6381 0.0530
1.8225 0.6041 0.0516
1.8275 0.5905 0.0516
1.8325 0.6469 0.0541
1.8375 0.6526 0.0546
1.8425 0.6052 0.0499
1.8475 0.6372 0.0531
1.8525 0.5711 0.0505
1.8575 0.5567 0.0500
1.8625 0.4957 0.0475
1.8675 0.5962 0.0509
1.8725 0.5847 0.0503
1.8775 0.6044 0.0516
1.8825 0.5738 0.0505
1.8875 0.4576 0.0455
1.8925 0.5260 0.0490
1.8975 0.5302 0.0476
1.9025 0.4152 0.0426
1.9075 0.4125 0.0427
1.9125 0.4437 0.0446
1.9175 0.5034 0.0475
1.9225 0.4798 0.0468
1.9275 0.4027 0.0418
1.9325 0.4791 0.0453
1.9375 0.3982 0.0424
1.9425 0.3816 0.0414
1.9475 0.4086 0.0433
1.9525 0.3973 0.0426
1.9575 0.3058 0.0358
1.9625 0.3899 0.0415
1.9675 0.3381 0.0385
1.9725 0.3128 0.0379
1.9775 0.3370 0.0391
1.9825 0.2910 0.0366
1.9875 0.3379 0.0378
1.9925 0.3835 0.0408
1.9975 0.3427 0.0393
2.0025 0.2853 0.0359
2.0075 0.3140 0.0378
2.0125 0.3411 0.0394
2.0175 0.2693 0.0339
2.0225 0.3262 0.0379
2.0275 0.2892 0.0359
2.0325 0.2445 0.0336
2.0375 0.2615 0.0343
2.0425 0.2683 0.0349
2.0475 0.2384 0.0321
2.0525 0.3331 0.0380
2.0575 0.2676 0.0348
2.0625 0.2792 0.0355
2.0675 0.2480 0.0335
2.0725 0.2541 0.0344
2.0775 0.1715 0.0275
2.0825 0.2348 0.0317
2.0875 0.2175 0.0311
2.0925 0.2029 0.0302
2.0975 0.1650 0.0275
2.1025 0.1553 0.0266
2.1075 0.2445 0.0333
2.1125 0.1991 0.0290
2.1175 0.2113 0.0305
2.1225 0.1544 0.0265
2.1275 0.2085 0.0308
2.1325 0.1806 0.0289
2.1375 0.1751 0.0284
2.1425 0.1667 0.0264
2.1475 0.2060 0.0301
2.1525 0.1666 0.0274
2.1575 0.1660 0.0277
2.1625 0.1575 0.0270
2.1675 0.1544 0.0265
2.1725 0.1391 0.0242
2.1775 0.1062 0.0217
2.1825 0.1351 0.0247
2.1875 0.1233 0.0237
2.1925 0.1284 0.0243
2.1975 0.0959 0.0209
2.2025 0.0597 0.0160
2.2075 0.0665 0.0172
2.2125 0.0267 0.0109
2.2175 0.0547 0.0158
2.2225 0.0365 0.0129
2.2275 0.0414 0.0138
2.2325 0.0175 0.0088
2.2375 0.0304 0.0115
2.2425 0.0224 0.0100
2.2475 0.0316 0.0119
2.2525 0.0227 0.0102
2.2575 0.0092 0.0065
2.2625 0.0000 1.0000
2.2675 0.0210 0.0094
2.2725 0.0399 0.0133
2.2775 0.0623 0.0166
2.2825 0.0277 0.0113
2.2875 0.0000 1.0000
2.2925 0.0046 0.0046
2.2975 0.0126 0.0073
2.3025 0.0134 0.0077
2.3075 0.0133 0.0077
2.3125 0.0000 1.0000
2.3175 0.0000 1.0000
2.3225 0.0000 1.0000
2.3275 0.0127 0.0074
2.3325 0.0176 0.0088
2.3375 0.0131 0.0076
2.3425 0.0091 0.0064
2.3475 0.0046 0.0046
2.3525 0.0000 1.0000
2.3575 0.0087 0.0062
2.3625 0.0000 1.0000
2.3675 0.0046 0.0046
2.3725 0.0180 0.0090
2.3775 0.0227 0.0102
2.3825 0.0046 0.0046
2.3875 0.0045 0.0045
2.3925 0.0127 0.0073
2.3975 0.0045 0.0045
2.4025 0.0091 0.0064
2.4075 0.0091 0.0064
2.4125 0.0139 0.0080
2.4175 0.0000 1.0000
2.4225 0.0041 0.0041
2.4275 0.0268 0.0109
2.4325 0.0091 0.0064
2.4375 0.0000 1.0000
2.4425 0.0047 0.0046
2.4475 0.0000 1.0000
2.4525 0.0000 1.0000
2.4575 0.0133 0.0077
2.4625 0.0000 1.0000
2.4675 0.0000 1.0000
2.4725 0.0046 0.0046
2.4775 0.0046 0.0046
2.4825 0.0042 0.0042
2.4875 0.0000 1.0000
2.4925 0.0045 0.0045
2.4975 0.0046 0.0046
2.5025 0.0000 1.0000
2.5075 0.0046 0.0046
2.5125 0.0042 0.0042
2.5175 0.0088 0.0062
2.5225 0.0091 0.0064
2.5275 0.0223 0.0100
2.5325 0.0187 0.0093
2.5375 0.0183 0.0092
2.5425 0.0041 0.0041
2.5475 0.0000 1.0000
2.5525 0.0044 0.0045
2.5575 0.0000 1.0000
2.5625 0.0137 0.0079
2.5675 0.0046 0.0046
2.5725 0.0041 0.0041
2.5775 0.0088 0.0062
2.5825 0.0045 0.0045
2.5875 0.0046 0.0046
2.5925 0.0269 0.0110
2.5975 0.0000 1.0000
2.6025 0.0040 0.0040
2.6075 0.0000 1.0000
2.6125 0.0090 0.0064
2.6175 0.0181 0.0090
2.6225 0.0046 0.0046
2.6275 0.0044 0.0044
2.6325 0.0043 0.0043
2.6375 0.0044 0.0044
2.6425 0.0091 0.0064
2.6475 0.0000 1.0000
2.6525 0.0046 0.0046
2.6575 0.0042 0.0042
2.6625 0.0000 1.0000
2.6675 0.0000 1.0000
2.6725 0.0000 1.0000
2.6775 0.0000 1.0000
2.6825 0.0000 1.0000
2.6875 0.0041 0.0041
2.6925 0.0000 1.0000
2.6975 0.0000 1.0000
0.0000 0.0000 1.0000
0.0000 0.0000 1.0000
0.0000 0.0000 1.0000
0.0000 0.0000 1.0000
0.0000 0.0000 1.0000
0.0000 0.0000 1.0000
0.0000 0.0000 1.0000
0.0000 0.0000 1.0000
0.0000 0.0000 1.0000
0.0000 0.0000 1.0000
0.0000 0.0000 1.0000
0.0000 0.0000 1.0000
0.0000 0.0000 1.0000
0.0000 0.0000 1.0000
