1.0725 0.5536 0.1276
1.0775 0.5863 0.0929
1.0825 0.5933 0.0748
1.0875 0.7130 0.0774
1.0925 0.5524 0.0647
1.0975 0.4960 0.0593
1.1025 0.5114 0.0533
1.1075 0.6797 0.0629
1.1125 0.6741 0.0605
1.1175 0.5739 0.0533
1.1225 0.6177 0.0530
1.1275 0.7654 0.0593
1.1325 0.7040 0.0562
1.1375 0.6367 0.0513
1.1425 0.6319 0.0514
1.1475 0.5955 0.0509
1.1525 0.6377 0.0528
1.1575 0.7782 0.0559
1.1625 0.7027 0.0546
1.1675 0.7303 0.0560
1.1725 0.7872 0.0579
1.1775 0.8283 0.0577
1.1825 0.9270 0.0633
1.1875 0.8466 0.0601
1.1925 0.8716 0.0601
1.1975 0.8773 0.0600
1.2025 0.9077 0.0618
1.2075 0.9090 0.0627
1.2125 0.8411 0.0586
1.2175 0.8712 0.0594
1.2225 0.9355 0.0634
1.2275 0.9798 0.0638
1.2325 1.0330 0.0653
1.2375 1.0373 0.0652
1.2425 1.0907 0.0670
1.2475 1.0696 0.0679
1.2525 0.9554 0.0623
1.2575 0.9831 0.0628
1.2625 0.9912 0.0645
1.2675 0.9782 0.0648
1.2725 0.9182 0.0611
1.2775 1.0615 0.0661
1.2825 0.9742 0.0644
1.2875 1.0479 0.0665
1.2925 1.0653 0.0673
1.2975 1.1983 0.0688
1.3025 1.2306 0.0719
1.3075 1.4726 0.0787
1.3125 1.5310 0.0811
1.3175 2.0781 0.0906
1.3225 2.6195 0.1047
1.3275 2.9376 0.1118
1.3325 3.7295 0.1265
1.3375 3.7726 0.1231
1.3425 3.3135 0.1182
1.3475 2.7142 0.1061
1.3525 2.0908 0.0953
1.3575 1.6415 0.0822
1.3625 1.3506 0.0747
1.3675 1.2842 0.0736
1.3725 1.3633 0.0758
1.3775 1.3815 0.0773
1.3825 1.4825 0.0775
1.3875 1.4470 0.0781
1.3925 1.6962 0.0846
1.3975 1.4357 0.0790
1.4025 1.5630 0.0807
1.4075 1.5623 0.0807
1.4125 1.5299 0.0802
1.4175 1.5812 0.0831
1.4225 1.7576 0.0874
1.4275 2.2653 0.0962
1.4325 4.0134 0.1296
1.4375 7.8418 0.1827
1.4425 9.8784 0.2077
1.4475 6.7129 0.1676
1.4525 3.2216 0.1161
1.4575 2.0888 0.0941
1.4625 1.6894 0.0855
1.4675 1.6899 0.0859
1.4725 1.8590 0.0878
1.4775 1.6119 0.0825
1.4825 1.7017 0.0853
1.4875 1.5339 0.0811
1.4925 1.5604 0.0829
1.4975 1.5530 0.0803
1.5025 1.4459 0.0779
1.5075 1.4404 0.0793
1.5125 1.4162 0.0783
1.5175 1.5566 0.0830
1.5225 1.5325 0.0786
1.5275 1.6194 0.0828
1.5325 1.5169 0.0819
1.5375 1.4849 0.0812
1.5425 1.4588 0.0803
1.5475 1.3571 0.0735
1.5525 1.4481 0.0792
1.5575 1.5914 0.0834
1.5625 1.8611 0.0898
1.5675 2.4542 0.1047
1.5725 2.6915 0.1050
1.5775 2.5772 0.1054
1.5825 2.2072 0.0980
1.5875 1.8024 0.0887
1.5925 1.6237 0.0853
1.5975 1.4246 0.0763
1.6025 1.6040 0.0826
1.6075 1.4689 0.0806
1.6125 1.3999 0.0789
1.6175 1.5161 0.0825
1.6225 1.6342 0.0820
1.6275 1.3812 0.0773
1.6325 1.2500 0.0734
1.6375 1.2957 0.0762
1.6425 1.0939 0.0697
1.6475 1.2583 0.0724
1.6525 1.1900 0.0715
1.6575 1.1654 0.0710
1.6625 1.0142 0.0674
1.6675 1.2271 0.0739
1.6725 1.0988 0.0684
1.6775 1.1195 0.0692
1.6825 1.2012 0.0724
1.6875 1.1574 0.0720
1.6925 1.3595 0.0776
1.6975 1.4393 0.0803
1.7025 1.8768 0.0881
1.7075 2.3239 0.1001
1.7125 3.0975 0.1173
1.7175 3.8959 0.1307
1.7225 3.3482 0.1231
1.7275 2.5842 0.1044
1.7325 1.9124 0.0910
1.7375 1.6295 0.0847
1.7425 1.3636 0.0782
1.7475 1.1838 0.0727
1.7525 1.1646 0.0729
1.7575 1.0659 0.0661
1.7625 0.8007 0.0589
1.7675 1.0625 0.0687
1.7725 0.8702 0.0625
1.7775 0.8541 0.0625
1.7825 0.7566 0.0569
1.7875 0.7685 0.0574
1.7925 0.7561 0.0575
1.7975 0.7579 0.0580
1.8025 0.8189 0.0609
1.8075 0.8195 0.0612
1.8125 0.6838 0.0532
1.8175 0.7491 0.0574
1.8225 0.7449 0.0573
1.8275 0.6937 0.0559
1.8325 0.6928 0.0560
1.8375 0.6661 0.0551
1.8425 0.6343 0.0511
1.8475 0.6635 0.0542
1.8525 0.5445 0.0493
1.8575 0.5518 0.0497
1.8625 0.5228 0.0487
1.8675 0.6480 0.0531
1.8725 0.5372 0.0482
1.8775 0.5027 0.0471
1.8825 0.5561 0.0497
1.8875 0.5162 0.0483
1.8925 0.5074 0.0481
1.8975 0.4662 0.0446
1.9025 0.5335 0.0483
1.9075 0.5185 0.0479
1.9125 0.4934 0.0470
1.9175 0.5702 0.0506
1.9225 0.5711 0.0511
1.9275 0.4763 0.0454
1.9325 0.4667 0.0447
1.9375 0.4760 0.0464
1.9425 0.4399 0.0444
1.9475 0.3951 0.0426
1.9525 0.3705 0.0411
1.9575 0.4105 0.0414
1.9625 0.5045 0.0472
1.9675 0.3995 0.0419
1.9725 0.3626 0.0408
1.9775 0.4189 0.0436
1.9825 0.4199 0.0440
1.9875 0.3804 0.0401
1.9925 0.4706 0.0452
1.9975 0.3784 0.0413
2.0025 0.3851 0.0417
2.0075 0.4185 0.0436
2.0125 0.4001 0.0426
2.0175 0.3549 0.0389
2.0225 0.3701 0.0404
2.0275 0.4183 0.0431
2.0325 0.3641 0.0410
2.0375 0.3694 0.0408
2.0425 0.4234 0.0439
2.0475 0.3378 0.0382
2.0525 0.3813 0.0406
2.0575 0.3312 0.0387
2.0625 0.3110 0.0374
2.0675 0.3512 0.0399
2.0725 0.2913 0.0368
2.0775 0.2646 0.0341
2.0825 0.3243 0.0372
2.0875 0.2797 0.0353
2.0925 0.3010 0.0368
2.0975 0.2611 0.0346
2.1025 0.2372 0.0329
2.1075 0.2529 0.0338
2.1125 0.1907 0.0284
2.1175 0.2468 0.0330
2.1225 0.1362 0.0249
2.1275 0.1317 0.0245
2.1325 0.1574 0.0270
2.1375 0.1934 0.0299
2.1425 0.1709 0.0267
2.1475 0.1796 0.0281
2.1525 0.1396 0.0251
2.1575 0.1705 0.0280
2.1625 0.1251 0.0241
2.1675 0.1497 0.0261
2.1725 0.1226 0.0227
2.1775 0.1372 0.0246
2.1825 0.1441 0.0255
2.1875 0.0914 0.0204
2.1925 0.0917 0.0205
2.1975 0.1097 0.0224
2.2025 0.0514 0.0148
2.2075 0.0486 0.0147
2.2125 0.0667 0.0172
2.2175 0.0411 0.0137
2.2225 0.0366 0.0129
2.2275 0.0507 0.0153
2.2325 0.0044 0.0044
2.2375 0.0305 0.0115
2.2425 0.0269 0.0110
2.2475 0.0226 0.0101
2.2525 0.0182 0.0091
2.2575 0.0139 0.0080
2.2625 0.0278 0.0113
2.2675 0.0294 0.0111
2.2725 0.0134 0.0077
2.2775 0.0045 0.0045
2.2825 0.0092 0.0065
2.2875 0.0000 1.0000
2.2925 0.0093 0.0066
2.2975 0.0084 0.0059
2.3025 0.0044 0.0044
2.3075 0.0044 0.0044
2.3125 0.0046 0.0046
2.3175 0.0093 0.0065
2.3225 0.0000 1.0000
2.3275 0.0000 1.0000
2.3325 0.0044 0.0044
2.3375 0.0000 1.0000
2.3425 0.0000 1.0000
2.3475 0.0046 0.0046
2.3525 0.0045 0.0046
2.3575 0.0087 0.0062
2.3625 0.0170 0.0085
2.3675 0.0046 0.0046
2.3725 0.0000 1.0000
2.3775 0.0000 1.0000
2.3825 0.0000 1.0000
2.3875 0.0000 1.0000
2.3925 0.0042 0.0042
2.3975 0.0089 0.0063
2.4025 0.0135 0.0078
2.4075 0.0137 0.0079
2.4125 0.0000 1.0000
2.4175 0.0139 0.0080
2.4225 0.0042 0.0042
2.4275 0.0090 0.0063
2.4325 0.0090 0.0064
2.4375 0.0136 0.0078
2.4425 0.0092 0.0065
2.4475 0.0046 0.0046
2.4525 0.0000 1.0000
2.4575 0.0000 1.0000
2.4625 0.0045 0.0045
2.4675 0.0046 0.0046
2.4725 0.0046 0.0046
2.4775 0.0046 0.0046
2.4825 0.0000 1.0000
2.4875 0.0000 1.0000
2.4925 0.0000 1.0000
2.4975 0.0046 0.0046
2.5025 0.0091 0.0065
2.5075 0.0139 0.0080
2.5125 0.0000 1.0000
2.5175 0.0088 0.0062
2.5225 0.0136 0.0078
2.5275 0.0313 0.0118
2.5325 0.0000 1.0000
2.5375 0.0183 0.0092
2.5425 0.0246 0.0101
2.5475 0.0356 0.0126
2.5525 0.0179 0.0089
2.5575 0.0182 0.0091
2.5625 0.0091 0.0064
2.5675 0.0092 0.0065
2.5725 0.0041 0.0041
2.5775 0.0088 0.0062
2.5825 0.0045 0.0045
2.5875 0.0045 0.0045
2.5925 0.0268 0.0110
2.5975 0.0139 0.0081
2.6025 0.0246 0.0100
2.6075 0.0222 0.0099
2.6125 0.0180 0.0090
2.6175 0.0182 0.0091
2.6225 0.0183 0.0091
2.6275 0.0044 0.0044
2.6325 0.0043 0.0043
2.6375 0.0134 0.0077
2.6425 0.0045 0.0045
2.6475 0.0135 0.0078
2.6525 0.0046 0.0046
2.6575 0.0042 0.0042
2.6625 0.0043 0.0043
2.6675 0.0000 1.0000
2.6725 0.0045 0.0045
2.6775 0.0000 1.0000
2.6825 0.0046 0.0046
2.6875 0.0041 0.0041
2.6925 0.0000 1.0000
2.6975 0.0000 1.0000
0.0000 0.0000 1.0000
0.0000 0.0000 1.0000
0.0000 0.0000 1.0000
0.0000 0.0000 1.0000
0.0000 0.0000 1.0000
0.0000 0.0000 1.0000
0.0000 0.0000 1.0000
0.0000 0.0000 1.0000
0.0000 0.0000 1.0000
0.0000 0.0000 1.0000
0.0000 0.0000 1.0000
0.0000 0.0000 1.0000
0.0000 0.0000 1.0000
0.0000 0.0000 1.0000
