1.0725 1.1354 0.1827
1.0775 0.6880 0.1006
1.0825 0.7251 0.0827
1.0875 0.6714 0.0751
1.0925 0.7340 0.0746
1.0975 0.9063 0.0802
1.1025 0.8933 0.0704
1.1075 0.8371 0.0698
1.1125 0.8909 0.0696
1.1175 0.7520 0.0610
1.1225 0.8988 0.0639
1.1275 0.8852 0.0637
1.1325 0.9009 0.0636
1.1375 0.7770 0.0567
1.1425 0.8326 0.0590
1.1475 0.9564 0.0645
1.1525 0.9039 0.0628
1.1575 0.9309 0.0611
1.1625 0.8725 0.0608
1.1675 0.9443 0.0637
1.1725 1.0256 0.0661
1.1775 0.9887 0.0630
1.1825 1.0143 0.0663
1.1875 1.1417 0.0698
1.1925 1.0753 0.0668
1.1975 1.0532 0.0657
1.2025 0.9836 0.0643
1.2075 1.1393 0.0702
1.2125 1.1878 0.0696
1.2175 1.1259 0.0675
1.2225 1.1729 0.0710
1.2275 1.0419 0.0658
1.2325 1.0621 0.0662
1.2375 1.1031 0.0672
1.2425 1.1356 0.0684
1.2475 1.1726 0.0711
1.2525 1.2956 0.0726
1.2575 1.3127 0.0726
1.2625 1.1760 0.0703
1.2675 1.1804 0.0712
1.2725 1.2267 0.0706
1.2775 1.3001 0.0731
1.2825 1.1354 0.0695
1.2875 1.3645 0.0759
1.2925 1.4143 0.0776
1.2975 1.2196 0.0694
1.3025 1.3057 0.0741
1.3075 1.3169 0.0744
1.3125 1.4065 0.0777
1.3175 1.3977 0.0743
1.3225 1.2768 0.0731
1.3275 1.3361 0.0754
1.3325 1.3687 0.0766
1.3375 1.3557 0.0738
1.3425 1.3613 0.0758
1.3475 1.3272 0.0742
1.3525 1.5211 0.0813
1.3575 1.5050 0.0787
1.3625 1.5083 0.0789
1.3675 1.5156 0.0800
1.3725 1.5364 0.0805
1.3775 1.6063 0.0834
1.3825 1.5394 0.0789
1.3875 1.2908 0.0738
1.3925 1.5570 0.0811
1.3975 1.6753 0.0853
1.4025 1.5210 0.0796
1.4075 1.7168 0.0846
1.4125 1.5683 0.0812
1.4175 1.7903 0.0884
1.4225 1.6528 0.0848
1.4275 1.7550 0.0846
1.4325 1.6829 0.0839
1.4375 1.6633 0.0841
1.4425 1.7312 0.0869
1.4475 1.6940 0.0842
1.4525 1.5604 0.0808
1.4575 1.6814 0.0844
1.4625 1.6943 0.0856
1.4675 1.6771 0.0856
1.4725 1.6101 0.0817
1.4775 1.8065 0.0873
1.4825 1.6924 0.0850
1.4875 1.6838 0.0850
1.4925 1.8193 0.0895
1.4975 1.7149 0.0844
1.5025 1.5799 0.0815
1.5075 1.8868 0.0908
1.5125 1.7020 0.0858
1.5175 1.7732 0.0886
1.5225 1.6219 0.0809
1.5275 1.7121 0.0852
1.5325 1.7340 0.0876
1.5375 1.7171 0.0874
1.5425 1.6498 0.0854
1.5475 1.6359 0.0807
1.5525 1.4273 0.0786
1.5575 1.5304 0.0817
1.5625 1.5673 0.0824
1.5675 1.3750 0.0783
1.5725 1.4344 0.0767
1.5775 1.4005 0.0777
1.5825 1.4562 0.0796
1.5875 1.5534 0.0824
1.5925 1.3450 0.0777
1.5975 1.4326 0.0765
1.6025 1.4676 0.0790
1.6075 1.3897 0.0784
1.6125 1.4092 0.0791
1.6175 1.4396 0.0803
1.6225 1.3251 0.0738
1.6275 1.4635 0.0796
1.6325 1.4265 0.0784
1.6375 1.2428 0.0747
1.6425 1.2582 0.0748
1.6475 1.1883 0.0704
1.6525 1.2542 0.0734
1.6575 1.2438 0.0734
1.6625 1.1614 0.0722
1.6675 1.3475 0.0774
1.6725 1.0685 0.0674
1.6775 1.1288 0.0695
1.6825 1.1092 0.0696
1.6875 1.0762 0.0695
1.6925 1.0844 0.0693
1.6975 1.1393 0.0715
1.7025 1.2235 0.0711
1.7075 1.0092 0.0660
1.7125 0.9647 0.0655
1.7175 1.0308 0.0672
1.7225 0.8552 0.0622
1.7275 1.0425 0.0663
1.7325 0.8789 0.0617
1.7375 0.9292 0.0640
1.7425 0.9601 0.0656
1.7475 0.8124 0.0602
1.7525 0.8990 0.0641
1.7575 0.8612 0.0594
1.7625 0.9610 0.0645
1.7675 0.7596 0.0581
1.7725 0.8921 0.0632
1.7775 0.8634 0.0628
1.7825 0.7562 0.0568
1.7875 0.7431 0.0565
1.7925 0.7299 0.0565
1.7975 0.6867 0.0552
1.8025 0.8099 0.0605
1.8075 0.6695 0.0553
1.8125 0.6383 0.0514
1.8175 0.6525 0.0536
1.8225 0.5987 0.0514
1.8275 0.7838 0.0594
1.8325 0.6058 0.0524
1.8375 0.6530 0.0546
1.8425 0.5804 0.0489
1.8475 0.6111 0.0520
1.8525 0.6471 0.0537
1.8575 0.4936 0.0470
1.8625 0.5730 0.0510
1.8675 0.5308 0.0480
1.8725 0.5067 0.0468
1.8775 0.5290 0.0483
1.8825 0.5473 0.0493
1.8875 0.5071 0.0479
1.8925 0.4485 0.0453
1.8975 0.4831 0.0454
1.9025 0.4853 0.0460
1.9075 0.4609 0.0452
1.9125 0.4932 0.0470
1.9175 0.3769 0.0411
1.9225 0.5023 0.0479
1.9275 0.4289 0.0431
1.9325 0.3294 0.0375
1.9375 0.4354 0.0444
1.9425 0.4851 0.0466
1.9475 0.4178 0.0438
1.9525 0.3798 0.0416
1.9575 0.4103 0.0414
1.9625 0.3410 0.0388
1.9675 0.3246 0.0377
1.9725 0.3307 0.0389
1.9775 0.3460 0.0397
1.9825 0.3600 0.0407
1.9875 0.3254 0.0371
1.9925 0.3439 0.0387
1.9975 0.3564 0.0401
2.0025 0.4397 0.0446
2.0075 0.2911 0.0364
2.0125 0.2867 0.0361
2.0175 0.3545 0.0389
2.0225 0.2598 0.0338
2.0275 0.3154 0.0374
2.0325 0.2582 0.0345
2.0375 0.2707 0.0349
2.0425 0.2957 0.0367
2.0475 0.2336 0.0318
2.0525 0.2385 0.0321
2.0575 0.1951 0.0297
2.0625 0.2476 0.0334
2.0675 0.2749 0.0353
2.0725 0.2500 0.0341
2.0775 0.2423 0.0327
2.0825 0.2003 0.0293
2.0875 0.2395 0.0326
2.0925 0.1845 0.0288
2.0975 0.2475 0.0337
2.1025 0.2236 0.0319
2.1075 0.2083 0.0307
2.1125 0.1398 0.0243
2.1175 0.2070 0.0302
2.1225 0.1773 0.0284
2.1275 0.1502 0.0261
2.1325 0.2313 0.0327
2.1375 0.1935 0.0299
2.1425 0.1877 0.0280
2.1475 0.1361 0.0244
2.1525 0.1891 0.0292
2.1575 0.0967 0.0211
2.1625 0.1992 0.0304
2.1675 0.1818 0.0287
2.1725 0.1519 0.0253
2.1775 0.1461 0.0254
2.1825 0.0857 0.0196
2.1875 0.1234 0.0237
2.1925 0.0829 0.0195
2.1975 0.0866 0.0199
2.2025 0.0555 0.0154
2.2075 0.0576 0.0160
2.2125 0.0624 0.0167
2.2175 0.0732 0.0183
2.2225 0.0456 0.0144
2.2275 0.0508 0.0153
2.2325 0.0308 0.0116
2.2375 0.0391 0.0130
2.2425 0.0090 0.0063
2.2475 0.0090 0.0064
2.2525 0.0045 0.0045
2.2575 0.0277 0.0113
2.2625 0.0184 0.0092
2.2675 0.0127 0.0073
2.2725 0.0222 0.0099
2.2775 0.0089 0.0063
2.2825 0.0000 1.0000
2.2875 0.0046 0.0046
2.2925 0.0140 0.0081
2.2975 0.0209 0.0094
2.3025 0.0133 0.0077
2.3075 0.0044 0.0044
2.3125 0.0046 0.0046
2.3175 0.0000 1.0000
2.3225 0.0093 0.0066
2.3275 0.0171 0.0086
2.3325 0.0526 0.0152
2.3375 0.0265 0.0108
2.3425 0.0136 0.0079
2.3475 0.0137 0.0079
2.3525 0.0185 0.0092
2.3575 0.0088 0.0062
2.3625 0.0000 1.0000
2.3675 0.0046 0.0046
2.3725 0.0045 0.0045
2.3775 0.0046 0.0046
2.3825 0.0000 1.0000
2.3875 0.0000 1.0000
2.3925 0.0042 0.0042
2.3975 0.0132 0.0077
2.4025 0.0045 0.0045
2.4075 0.0091 0.0064
2.4125 0.0000 1.0000
2.4175 0.0000 1.0000
2.4225 0.0042 0.0042
2.4275 0.0536 0.0155
2.4325 0.0407 0.0136
2.4375 0.0090 0.0064
2.4425 0.0000 1.0000
2.4475 0.0092 0.0065
2.4525 0.0041 0.0041
2.4575 0.0000 1.0000
2.4625 0.0045 0.0045
2.4675 0.0184 0.0092
2.4725 0.0228 0.0102
2.4775 0.0276 0.0113
2.4825 0.0042 0.0042
2.4875 0.0087 0.0062
2.4925 0.0045 0.0045
2.4975 0.0228 0.0102
2.5025 0.0092 0.0065
2.5075 0.0092 0.0065
2.5125 0.0000 1.0000
2.5175 0.0044 0.0044
2.5225 0.0045 0.0045
2.5275 0.0000 1.0000
2.5325 0.0093 0.0066
2.5375 0.0092 0.0065
2.5425 0.0123 0.0071
2.5475 0.0088 0.0063
2.5525 0.0000 1.0000
2.5575 0.0137 0.0079
2.5625 0.0137 0.0079
2.5675 0.0000 1.0000
2.5725 0.0000 1.0000
2.5775 0.0089 0.0062
2.5825 0.0091 0.0064
2.5875 0.0000 1.0000
2.5925 0.0045 0.0045
2.5975 0.0000 1.0000
2.6025 0.0040 0.0040
2.6075 0.0000 1.0000
2.6125 0.0045 0.0045
2.6175 0.0045 0.0045
2.6225 0.0000 1.0000
2.6275 0.0044 0.0044
2.6325 0.0214 0.0095
2.6375 0.0178 0.0089
2.6425 0.0136 0.0078
2.6475 0.0359 0.0127
2.6525 0.0277 0.0113
2.6575 0.0042 0.0042
2.6625 0.0000 1.0000
2.6675 0.0090 0.0063
2.6725 0.0000 1.0000
2.6775 0.0000 1.0000
2.6825 0.0046 0.0046
2.6875 0.0123 0.0071
2.6925 0.0088 0.0062
2.6975 0.0000 1.0000
0.0000 0.0000 1.0000
0.0000 0.0000 1.0000
0.0000 0.0000 1.0000
0.0000 0.0000 1.0000
0.0000 0.0000 1.0000
0.0000 0.0000 1.0000
0.0000 0.0000 1.0000
0.0000 0.0000 1.0000
0.0000 0.0000 1.0000
0.0000 0.0000 1.0000
0.0000 0.0000 1.0000
0.0000 0.0000 1.0000
0.0000 0.0000 1.0000
0.0000 0.0000 1.0000
