1.0725 0.5823 0.1309
1.0775 0.8910 0.1145
1.0825 1.0454 0.0993
1.0875 0.8726 0.0856
1.0925 0.8391 0.0797
1.0975 0.9067 0.0802
1.1025 0.9887 0.0741
1.1075 0.9187 0.0731
1.1125 1.0266 0.0747
1.1175 0.9949 0.0702
1.1225 0.9584 0.0660
1.1275 0.8525 0.0625
1.1325 1.0527 0.0687
1.1375 1.0830 0.0669
1.1425 1.0251 0.0655
1.1475 1.0346 0.0671
1.1525 1.0389 0.0674
1.1575 0.9476 0.0617
1.1625 1.0759 0.0675
1.1675 1.0995 0.0687
1.1725 1.0641 0.0673
1.1775 1.1899 0.0691
1.1825 1.0312 0.0668
1.1875 1.1973 0.0715
1.1925 1.1126 0.0679
1.1975 1.0571 0.0658
1.2025 1.1380 0.0691
1.2075 1.1346 0.0701
1.2125 1.2571 0.0716
1.2175 1.1862 0.0693
1.2225 1.3266 0.0755
1.2275 1.2163 0.0710
1.2325 1.1661 0.0694
1.2375 1.3243 0.0737
1.2425 1.3008 0.0732
1.2475 1.1640 0.0708
1.2525 1.2756 0.0720
1.2575 1.3698 0.0742
1.2625 1.3273 0.0747
1.2675 1.2609 0.0736
1.2725 1.3088 0.0729
1.2775 1.3873 0.0756
1.2825 1.5280 0.0806
1.2875 1.5293 0.0803
1.2925 1.5129 0.0802
1.2975 1.4519 0.0758
1.3025 1.3310 0.0748
1.3075 1.4974 0.0793
1.3125 1.5403 0.0813
1.3175 1.2806 0.0711
1.3225 1.4643 0.0783
1.3275 1.6062 0.0827
1.3325 1.6823 0.0850
1.3375 1.5931 0.0800
1.3425 1.5501 0.0809
1.3475 1.5931 0.0813
1.3525 1.6554 0.0848
1.3575 1.6654 0.0828
1.3625 1.5579 0.0802
1.3675 1.7145 0.0851
1.3725 1.5994 0.0822
1.3775 1.5852 0.0828
1.3825 1.6323 0.0813
1.3875 1.6916 0.0845
1.3925 1.7171 0.0851
1.3975 1.7705 0.0877
1.4025 1.7714 0.0859
1.4075 1.8283 0.0873
1.4125 1.8034 0.0870
1.4175 1.7557 0.0876
1.4225 1.7449 0.0871
1.4275 1.8908 0.0878
1.4325 1.7285 0.0850
1.4375 1.8557 0.0889
1.4425 1.8656 0.0903
1.4475 1.9245 0.0897
1.4525 1.9281 0.0898
1.4575 1.7071 0.0850
1.4625 1.8060 0.0884
1.4675 1.8265 0.0893
1.4725 1.8088 0.0866
1.4775 1.8523 0.0884
1.4825 1.8079 0.0879
1.4875 1.8808 0.0898
1.4925 1.8421 0.0901
1.4975 1.7816 0.0860
1.5025 1.7355 0.0854
1.5075 1.7298 0.0869
1.5125 1.6460 0.0844
1.5175 1.7654 0.0884
1.5225 1.8234 0.0857
1.5275 1.6693 0.0841
1.5325 1.5354 0.0824
1.5375 1.6462 0.0855
1.5425 1.6100 0.0844
1.5475 1.5524 0.0786
1.5525 1.4784 0.0800
1.5575 1.5729 0.0829
1.5625 1.6531 0.0846
1.5675 1.6731 0.0864
1.5725 1.5857 0.0806
1.5775 1.5086 0.0806
1.5825 1.5823 0.0829
1.5875 1.5492 0.0822
1.5925 1.5781 0.0841
1.5975 1.5136 0.0786
1.6025 1.5958 0.0824
1.6075 1.3593 0.0776
1.6125 1.5868 0.0840
1.6175 1.4223 0.0799
1.6225 1.4128 0.0762
1.6275 1.3252 0.0757
1.6325 1.4008 0.0777
1.6375 1.3453 0.0777
1.6425 1.2622 0.0749
1.6475 1.4207 0.0769
1.6525 1.2759 0.0740
1.6575 1.2302 0.0730
1.6625 1.2926 0.0761
1.6675 1.2983 0.0760
1.6725 1.1242 0.0692
1.6775 1.1544 0.0702
1.6825 1.1271 0.0702
1.6875 1.2021 0.0734
1.6925 1.1460 0.0712
1.6975 1.0544 0.0688
1.7025 1.1203 0.0680
1.7075 0.9570 0.0642
1.7125 1.0846 0.0694
1.7175 1.1588 0.0713
1.7225 0.9823 0.0667
1.7275 0.9583 0.0636
1.7325 1.0857 0.0686
1.7375 0.8725 0.0620
1.7425 0.9870 0.0665
1.7475 0.9424 0.0649
1.7525 0.8996 0.0641
1.7575 0.7992 0.0572
1.7625 0.8706 0.0614
1.7675 0.8935 0.0630
1.7725 0.7759 0.0590
1.7775 0.9180 0.0647
1.7825 0.8076 0.0587
1.7875 0.6703 0.0536
1.7925 0.7477 0.0571
1.7975 0.7175 0.0565
1.8025 0.7014 0.0563
1.8075 0.6385 0.0540
1.8125 0.7704 0.0564
1.8175 0.6648 0.0541
1.8225 0.6516 0.0536
1.8275 0.6666 0.0548
1.8325 0.6565 0.0545
1.8375 0.6160 0.0530
1.8425 0.6095 0.0501
1.8475 0.6194 0.0524
1.8525 0.5270 0.0485
1.8575 0.4443 0.0446
1.8625 0.5773 0.0512
1.8675 0.5746 0.0500
1.8725 0.4593 0.0446
1.8775 0.5509 0.0493
1.8825 0.5029 0.0473
1.8875 0.4937 0.0473
1.8925 0.4891 0.0473
1.8975 0.4917 0.0458
1.9025 0.5464 0.0488
1.9075 0.4119 0.0427
1.9125 0.4625 0.0455
1.9175 0.4670 0.0458
1.9225 0.3747 0.0414
1.9275 0.4074 0.0420
1.9325 0.3380 0.0380
1.9375 0.3892 0.0420
1.9425 0.3726 0.0409
1.9475 0.3585 0.0406
1.9525 0.4165 0.0436
1.9575 0.3977 0.0408
1.9625 0.3504 0.0394
1.9675 0.3161 0.0372
1.9725 0.2987 0.0370
1.9775 0.3462 0.0397
1.9825 0.3272 0.0388
1.9875 0.3295 0.0373
1.9925 0.2656 0.0340
1.9975 0.3158 0.0377
2.0025 0.3444 0.0395
2.0075 0.2731 0.0352
2.0125 0.2911 0.0364
2.0175 0.2605 0.0334
2.0225 0.2339 0.0321
2.0275 0.3071 0.0369
2.0325 0.2675 0.0351
2.0375 0.2571 0.0340
2.0425 0.2682 0.0349
2.0475 0.1776 0.0277
2.0525 0.2168 0.0306
2.0575 0.2267 0.0320
2.0625 0.1985 0.0299
2.0675 0.1893 0.0293
2.0725 0.2171 0.0318
2.0775 0.1895 0.0289
2.0825 0.1880 0.0283
2.0875 0.2177 0.0311
2.0925 0.2161 0.0312
2.0975 0.1557 0.0267
2.1025 0.2283 0.0323
2.1075 0.2443 0.0332
2.1125 0.1696 0.0268
2.1175 0.1585 0.0264
2.1225 0.1637 0.0273
2.1275 0.1544 0.0265
2.1325 0.1389 0.0254
2.1375 0.1383 0.0252
2.1425 0.2083 0.0295
2.1475 0.1623 0.0267
2.1525 0.1530 0.0263
2.1575 0.1382 0.0252
2.1625 0.1111 0.0227
2.1675 0.0954 0.0208
2.1725 0.1350 0.0239
2.1775 0.1239 0.0234
2.1825 0.1171 0.0230
2.1875 0.0959 0.0209
2.1925 0.1104 0.0225
2.1975 0.0868 0.0199
2.2025 0.0641 0.0166
2.2075 0.0841 0.0193
2.2125 0.0489 0.0147
2.2175 0.0274 0.0112
2.2225 0.0365 0.0129
2.2275 0.0277 0.0113
2.2325 0.0131 0.0076
2.2375 0.0087 0.0062
2.2425 0.0224 0.0100
2.2475 0.0181 0.0090
2.2525 0.0137 0.0079
2.2575 0.0230 0.0103
2.2625 0.0231 0.0103
2.2675 0.0126 0.0073
2.2725 0.0089 0.0063
2.2775 0.0044 0.0044
2.2825 0.0138 0.0080
2.2875 0.0138 0.0080
2.2925 0.0140 0.0081
2.2975 0.0208 0.0093
2.3025 0.0133 0.0077
2.3075 0.0221 0.0099
2.3125 0.0228 0.0102
2.3175 0.0323 0.0122
2.3225 0.0185 0.0093
2.3275 0.0170 0.0085
2.3325 0.0044 0.0044
2.3375 0.0133 0.0077
2.3425 0.0000 1.0000
2.3475 0.0183 0.0092
2.3525 0.0092 0.0065
2.3575 0.0000 1.0000
2.3625 0.0043 0.0043
2.3675 0.0046 0.0046
2.3725 0.0045 0.0045
2.3775 0.0046 0.0046
2.3825 0.0093 0.0066
2.3875 0.0045 0.0045
2.3925 0.0085 0.0060
2.3975 0.0134 0.0077
2.4025 0.0226 0.0101
2.4075 0.0182 0.0091
2.4125 0.0232 0.0104
2.4175 0.0138 0.0080
2.4225 0.0167 0.0083
2.4275 0.0089 0.0063
2.4325 0.0045 0.0045
2.4375 0.0045 0.0045
2.4425 0.0046 0.0046
2.4475 0.0138 0.0080
2.4525 0.0166 0.0083
2.4575 0.0177 0.0088
2.4625 0.0000 1.0000
2.4675 0.0046 0.0046
2.4725 0.0091 0.0065
2.4775 0.0230 0.0103
2.4825 0.0251 0.0103
2.4875 0.0087 0.0062
2.4925 0.0090 0.0063
2.4975 0.0046 0.0046
2.5025 0.0000 1.0000
2.5075 0.0000 1.0000
2.5125 0.0000 1.0000
2.5175 0.0000 1.0000
2.5225 0.0000 1.0000
2.5275 0.0044 0.0044
2.5325 0.0000 1.0000
2.5375 0.0046 0.0046
2.5425 0.0000 1.0000
2.5475 0.0088 0.0063
2.5525 0.0045 0.0045
2.5575 0.0092 0.0065
2.5625 0.0046 0.0046
2.5675 0.0185 0.0092
2.5725 0.0041 0.0041
2.5775 0.0133 0.0076
2.5825 0.0000 1.0000
2.5875 0.0000 1.0000
2.5925 0.0045 0.0045
2.5975 0.0000 1.0000
2.6025 0.0164 0.0082
2.6075 0.0179 0.0089
2.6125 0.0089 0.0063
2.6175 0.0179 0.0090
2.6225 0.0274 0.0112
2.6275 0.0353 0.0124
2.6325 0.0127 0.0074
2.6375 0.0133 0.0077
2.6425 0.0046 0.0045
2.6475 0.0000 1.0000
2.6525 0.0138 0.0080
2.6575 0.0128 0.0074
2.6625 0.0129 0.0074
2.6675 0.0044 0.0045
2.6725 0.0180 0.0090
2.6775 0.0183 0.0091
2.6825 0.0092 0.0065
2.6875 0.0000 1.0000
2.6925 0.0000 1.0000
2.6975 0.0044 0.0044
0.0000 0.0000 1.0000
0.0000 0.0000 1.0000
0.0000 0.0000 1.0000
0.0000 0.0000 1.0000
0.0000 0.0000 1.0000
0.0000 0.0000 1.0000
0.0000 0.0000 1.0000
0.0000 0.0000 1.0000
0.0000 0.0000 1.0000
0.0000 0.0000 1.0000
0.0000 0.0000 1.0000
0.0000 0.0000 1.0000
0.0000 0.0000 1.0000
0.0000 0.0000 1.0000
