1.0725 0.9603 0.1681
1.0775 1.0077 0.1217
1.0825 0.8380 0.0889
1.0875 0.7720 0.0805
1.0925 0.9977 0.0869
1.0975 0.8006 0.0754
1.1025 0.8654 0.0693
1.1075 0.9235 0.0733
1.1125 0.9125 0.0704
1.1175 0.7475 0.0608
1.1225 0.8401 0.0618
1.1275 0.9720 0.0668
1.1325 0.8250 0.0608
1.1375 0.9214 0.0617
1.1425 0.8577 0.0599
1.1475 0.9518 0.0643
1.1525 1.0125 0.0665
1.1575 0.9984 0.0633
1.1625 0.9491 0.0634
1.1675 0.8763 0.0613
1.1725 0.9786 0.0645
1.1775 0.9928 0.0631
1.1825 0.9189 0.0631
1.1875 1.0397 0.0667
1.1925 1.1081 0.0678
1.1975 1.0820 0.0666
1.2025 1.0676 0.0670
1.2075 1.1348 0.0701
1.2125 1.0408 0.0652
1.2175 1.1585 0.0685
1.2225 1.0096 0.0658
1.2275 1.1292 0.0685
1.2325 1.1490 0.0689
1.2375 1.0785 0.0665
1.2425 1.0533 0.0658
1.2475 1.1425 0.0702
1.2525 1.1454 0.0682
1.2575 1.2529 0.0709
1.2625 1.2983 0.0739
1.2675 1.3860 0.0771
1.2725 1.2802 0.0721
1.2775 1.2473 0.0716
1.2825 1.3026 0.0745
1.2875 1.3768 0.0762
1.2925 1.3343 0.0754
1.2975 1.3490 0.0730
1.3025 1.2646 0.0729
1.3075 1.4139 0.0771
1.3125 1.4928 0.0800
1.3175 1.3190 0.0722
1.3225 1.3520 0.0752
1.3275 1.3472 0.0757
1.3325 1.4675 0.0794
1.3375 1.2443 0.0707
1.3425 1.3779 0.0762
1.3475 1.4020 0.0763
1.3525 1.3946 0.0779
1.3575 1.4112 0.0762
1.3625 1.5245 0.0794
1.3675 1.6256 0.0828
1.3725 1.5577 0.0811
1.3775 1.5887 0.0829
1.3825 1.7242 0.0836
1.3875 1.6880 0.0844
1.3925 1.6292 0.0829
1.3975 1.5662 0.0825
1.4025 1.7797 0.0861
1.4075 1.6458 0.0828
1.4125 1.6267 0.0827
1.4175 1.7437 0.0873
1.4225 1.7404 0.0870
1.4275 1.7681 0.0850
1.4325 1.5955 0.0817
1.4375 1.8305 0.0883
1.4425 1.6729 0.0855
1.4475 1.6605 0.0834
1.4525 1.7447 0.0854
1.4575 1.5497 0.0810
1.4625 1.6067 0.0834
1.4675 1.8073 0.0888
1.4725 1.6639 0.0831
1.4775 1.7642 0.0863
1.4825 1.7357 0.0861
1.4875 1.6117 0.0832
1.4925 1.8643 0.0906
1.4975 1.6904 0.0837
1.5025 1.7613 0.0860
1.5075 1.5817 0.0831
1.5125 1.6457 0.0844
1.5175 1.6331 0.0850
1.5225 1.7025 0.0829
1.5275 1.6104 0.0826
1.5325 1.5787 0.0836
1.5375 1.5433 0.0828
1.5425 1.6187 0.0846
1.5475 1.6194 0.0803
1.5525 1.5006 0.0806
1.5575 1.5433 0.0821
1.5625 1.6922 0.0856
1.5675 1.4992 0.0818
1.5725 1.5852 0.0806
1.5775 1.5199 0.0809
1.5825 1.3867 0.0776
1.5875 1.4264 0.0789
1.5925 1.4439 0.0805
1.5975 1.3954 0.0755
1.6025 1.3653 0.0762
1.6075 1.3676 0.0778
1.6125 1.3157 0.0765
1.6175 1.3224 0.0770
1.6225 1.3008 0.0732
1.6275 1.3292 0.0759
1.6325 1.2410 0.0731
1.6375 1.2108 0.0737
1.6425 1.4187 0.0794
1.6475 1.3418 0.0748
1.6525 1.2505 0.0733
1.6575 1.2473 0.0735
1.6625 1.1532 0.0719
1.6675 1.2624 0.0749
1.6725 1.3112 0.0747
1.6775 1.1970 0.0715
1.6825 1.1833 0.0719
1.6875 1.2333 0.0744
1.6925 1.1244 0.0705
1.6975 1.2336 0.0744
1.7025 1.1361 0.0685
1.7075 1.0224 0.0664
1.7125 1.1423 0.0713
1.7175 1.0005 0.0662
1.7225 1.0903 0.0702
1.7275 0.9492 0.0633
1.7325 1.0437 0.0672
1.7375 0.9250 0.0638
1.7425 0.9995 0.0669
1.7475 0.9154 0.0639
1.7525 0.8392 0.0619
1.7575 0.8202 0.0580
1.7625 0.8093 0.0592
1.7675 0.8223 0.0605
1.7725 0.8745 0.0626
1.7775 0.8727 0.0631
1.7825 0.7736 0.0575
1.7875 0.8336 0.0598
1.7925 0.8351 0.0604
1.7975 0.6913 0.0554
1.8025 0.7420 0.0579
1.8075 0.5285 0.0491
1.8125 0.6435 0.0516
1.8175 0.5951 0.0512
1.8225 0.7232 0.0564
1.8275 0.5803 0.0511
1.8325 0.6786 0.0554
1.8375 0.6201 0.0532
1.8425 0.6588 0.0521
1.8475 0.6280 0.0527
1.8525 0.6338 0.0532
1.8575 0.5840 0.0512
1.8625 0.4910 0.0472
1.8675 0.4609 0.0448
1.8725 0.5196 0.0474
1.8775 0.5073 0.0473
1.8825 0.5339 0.0487
1.8875 0.4573 0.0455
1.8925 0.5714 0.0511
1.8975 0.4786 0.0452
1.9025 0.4195 0.0428
1.9075 0.4520 0.0447
1.9125 0.4302 0.0439
1.9175 0.4267 0.0437
1.9225 0.5803 0.0515
1.9275 0.4158 0.0424
1.9325 0.3764 0.0401
1.9375 0.3758 0.0412
1.9425 0.3456 0.0394
1.9475 0.4043 0.0431
1.9525 0.3932 0.0424
1.9575 0.4063 0.0412
1.9625 0.3809 0.0411
1.9675 0.3820 0.0409
1.9725 0.4042 0.0431
1.9775 0.3828 0.0417
1.9825 0.3325 0.0391
1.9875 0.3595 0.0389
1.9925 0.2654 0.0340
1.9975 0.4555 0.0453
2.0025 0.3079 0.0373
2.0075 0.2545 0.0340
2.0125 0.2865 0.0361
2.0175 0.3335 0.0377
2.0225 0.2556 0.0336
2.0275 0.3071 0.0369
2.0325 0.2305 0.0326
2.0375 0.2300 0.0322
2.0425 0.2456 0.0334
2.0475 0.2772 0.0346
2.0525 0.2468 0.0327
2.0575 0.2539 0.0339
2.0625 0.2429 0.0331
2.0675 0.2522 0.0338
2.0725 0.2542 0.0344
2.0775 0.1891 0.0289
2.0825 0.2518 0.0328
2.0875 0.1999 0.0298
2.0925 0.2159 0.0312
2.0975 0.1832 0.0290
2.1025 0.1644 0.0274
2.1075 0.1673 0.0275
2.1125 0.1696 0.0268
2.1175 0.1585 0.0264
2.1225 0.2269 0.0321
2.1275 0.2138 0.0312
2.1325 0.1621 0.0274
2.1375 0.1522 0.0265
2.1425 0.2042 0.0292
2.1475 0.1361 0.0244
2.1525 0.1350 0.0247
2.1575 0.1336 0.0248
2.1625 0.1850 0.0293
2.1675 0.1181 0.0232
2.1725 0.1308 0.0235
2.1775 0.1638 0.0269
2.1825 0.0900 0.0201
2.1875 0.1141 0.0228
2.1925 0.0917 0.0205
2.1975 0.0961 0.0210
2.2025 0.0727 0.0176
2.2075 0.0620 0.0166
2.2125 0.0980 0.0209
2.2175 0.0593 0.0165
2.2225 0.0549 0.0158
2.2275 0.0139 0.0080
2.2325 0.0175 0.0088
2.2375 0.0000 1.0000
2.2425 0.0224 0.0100
2.2475 0.0135 0.0078
2.2525 0.0091 0.0064
2.2575 0.0092 0.0065
2.2625 0.0092 0.0065
2.2675 0.0168 0.0084
2.2725 0.0132 0.0076
2.2775 0.0000 1.0000
2.2825 0.0000 1.0000
2.2875 0.0046 0.0046
2.2925 0.0139 0.0080
2.2975 0.0125 0.0072
2.3025 0.0000 1.0000
2.3075 0.0000 1.0000
2.3125 0.0091 0.0064
2.3175 0.0093 0.0066
2.3225 0.0186 0.0093
2.3275 0.0042 0.0042
2.3325 0.0043 0.0044
2.3375 0.0045 0.0044
2.3425 0.0000 1.0000
2.3475 0.0091 0.0065
2.3525 0.0045 0.0046
2.3575 0.0087 0.0062
2.3625 0.0085 0.0060
2.3675 0.0046 0.0046
2.3725 0.0000 1.0000
2.3775 0.0366 0.0129
2.3825 0.0416 0.0139
2.3875 0.0270 0.0110
2.3925 0.0000 1.0000
2.3975 0.0000 1.0000
2.4025 0.0091 0.0064
2.4075 0.0136 0.0079
2.4125 0.0046 0.0046
2.4175 0.0000 1.0000
2.4225 0.0000 1.0000
2.4275 0.0000 1.0000
2.4325 0.0000 1.0000
2.4375 0.0045 0.0045
2.4425 0.0046 0.0046
2.4475 0.0046 0.0046
2.4525 0.0041 0.0041
2.4575 0.0044 0.0044
2.4625 0.0089 0.0063
2.4675 0.0046 0.0046
2.4725 0.0000 1.0000
2.4775 0.0000 1.0000
2.4825 0.0000 1.0000
2.4875 0.0044 0.0044
2.4925 0.0134 0.0078
2.4975 0.0136 0.0079
2.5025 0.0092 0.0065
2.5075 0.0138 0.0080
2.5125 0.0126 0.0073
2.5175 0.0262 0.0107
2.5225 0.0362 0.0128
2.5275 0.0045 0.0045
2.5325 0.0000 1.0000
2.5375 0.0000 1.0000
2.5425 0.0041 0.0041
2.5475 0.0044 0.0044
2.5525 0.0000 1.0000
2.5575 0.0137 0.0079
2.5625 0.0092 0.0065
2.5675 0.0000 1.0000
2.5725 0.0041 0.0041
2.5775 0.0000 1.0000
2.5825 0.0000 1.0000
2.5875 0.0137 0.0079
2.5925 0.0090 0.0064
2.5975 0.0047 0.0047
2.6025 0.0000 1.0000
2.6075 0.0045 0.0045
2.6125 0.0000 1.0000
2.6175 0.0182 0.0091
2.6225 0.0046 0.0046
2.6275 0.0000 1.0000
2.6325 0.0043 0.0043
2.6375 0.0089 0.0063
2.6425 0.0045 0.0045
2.6475 0.0090 0.0064
2.6525 0.0000 1.0000
2.6575 0.0170 0.0085
2.6625 0.0129 0.0074
2.6675 0.0179 0.0089
2.6725 0.0135 0.0078
2.6775 0.0091 0.0065
2.6825 0.0091 0.0065
2.6875 0.0041 0.0041
2.6925 0.0000 1.0000
2.6975 0.0044 0.0044
0.0000 0.0000 1.0000
0.0000 0.0000 1.0000
0.0000 0.0000 1.0000
0.0000 0.0000 1.0000
0.0000 0.0000 1.0000
0.0000 0.0000 1.0000
0.0000 0.0000 1.0000
0.0000 0.0000 1.0000
0.0000 0.0000 1.0000
0.0000 0.0000 1.0000
0.0000 0.0000 1.0000
0.0000 0.0000 1.0000
0.0000 0.0000 1.0000
0.0000 0.0000 1.0000
