1.0725 0.6682 0.1402
1.0775 0.6590 0.0984
1.0825 1.0446 0.0993
1.0875 0.9483 0.0893
1.0925 0.8628 0.0808
1.0975 0.9355 0.0815
1.1025 0.8268 0.0678
1.1075 0.9354 0.0737
1.1125 0.8748 0.0690
1.1175 0.9100 0.0671
1.1225 0.8945 0.0638
1.1275 1.0087 0.0680
1.1325 0.9458 0.0651
1.1375 0.9009 0.0610
1.1425 0.9918 0.0644
1.1475 0.8822 0.0619
1.1525 0.9609 0.0648
1.1575 1.0148 0.0638
1.1625 1.0169 0.0656
1.1675 0.8762 0.0613
1.1725 0.9867 0.0648
1.1775 1.0898 0.0662
1.1825 1.1087 0.0693
1.1875 1.1333 0.0696
1.1925 1.0874 0.0672
1.1975 1.2048 0.0703
1.2025 1.2279 0.0718
1.2075 1.1132 0.0694
1.2125 1.1308 0.0679
1.2175 1.1252 0.0675
1.2225 1.2324 0.0727
1.2275 1.0877 0.0672
1.2325 1.0867 0.0670
1.2375 1.1811 0.0696
1.2425 1.2630 0.0721
1.2475 1.2324 0.0729
1.2525 1.2022 0.0699
1.2575 1.2084 0.0697
1.2625 1.2015 0.0711
1.2675 1.2569 0.0734
1.2725 1.3246 0.0734
1.2775 1.2715 0.0723
1.2825 1.3401 0.0755
1.2875 1.3724 0.0761
1.2925 1.2821 0.0739
1.2975 1.2930 0.0715
1.3025 1.1901 0.0707
1.3075 1.4472 0.0780
1.3125 1.2358 0.0728
1.3175 1.4782 0.0764
1.3225 1.3770 0.0759
1.3275 1.4541 0.0787
1.3325 1.5884 0.0826
1.3375 1.5010 0.0776
1.3425 1.4968 0.0795
1.3475 1.5797 0.0810
1.3525 1.6214 0.0840
1.3575 1.5424 0.0797
1.3625 1.5866 0.0810
1.3675 1.7354 0.0856
1.3725 1.6463 0.0833
1.3775 1.6241 0.0838
1.3825 1.7697 0.0846
1.3875 1.5941 0.0820
1.3925 1.7051 0.0848
1.3975 1.6010 0.0834
1.4025 1.7338 0.0850
1.4075 1.6539 0.0830
1.4125 1.8408 0.0879
1.4175 1.7479 0.0874
1.4225 1.7263 0.0866
1.4275 1.6003 0.0808
1.4325 1.7241 0.0849
1.4375 1.6300 0.0833
1.4425 1.7742 0.0880
1.4475 1.9663 0.0907
1.4525 1.8272 0.0874
1.4575 1.6565 0.0838
1.4625 1.8535 0.0896
1.4675 1.8822 0.0907
1.4725 1.6808 0.0835
1.4775 1.7049 0.0848
1.4825 1.6626 0.0843
1.4875 1.8346 0.0887
1.4925 1.7976 0.0890
1.4975 1.7195 0.0845
1.5025 1.7273 0.0852
1.5075 1.7863 0.0883
1.5125 1.8320 0.0891
1.5175 1.7655 0.0884
1.5225 1.7432 0.0838
1.5275 1.6781 0.0843
1.5325 1.6849 0.0863
1.5375 1.6189 0.0848
1.5425 1.7206 0.0873
1.5475 1.4731 0.0766
1.5525 1.5050 0.0807
1.5575 1.5781 0.0830
1.5625 1.6587 0.0847
1.5675 1.6634 0.0862
1.5725 1.4802 0.0779
1.5775 1.5743 0.0824
1.5825 1.5000 0.0808
1.5875 1.5624 0.0826
1.5925 1.3892 0.0789
1.5975 1.4326 0.0765
1.6025 1.3994 0.0772
1.6075 1.4648 0.0805
1.6125 1.4849 0.0812
1.6175 1.3763 0.0786
1.6225 1.4159 0.0763
1.6275 1.3510 0.0765
1.6325 1.4786 0.0798
1.6375 1.3460 0.0777
1.6425 1.3788 0.0783
1.6475 1.2924 0.0734
1.6525 1.3229 0.0754
1.6575 1.3209 0.0756
1.6625 1.1575 0.0720
1.6675 1.0668 0.0689
1.6725 1.3070 0.0746
1.6775 1.1327 0.0696
1.6825 1.1272 0.0702
1.6875 1.1201 0.0709
1.6925 1.0622 0.0686
1.6975 1.1216 0.0709
1.7025 1.1495 0.0689
1.7075 1.0734 0.0680
1.7125 1.1555 0.0717
1.7175 1.0128 0.0666
1.7225 0.8913 0.0635
1.7275 1.0428 0.0663
1.7325 0.8614 0.0611
1.7375 1.1190 0.0702
1.7425 0.8206 0.0607
1.7475 0.9198 0.0641
1.7525 0.8999 0.0641
1.7575 0.8976 0.0607
1.7625 0.9047 0.0626
1.7675 0.8262 0.0606
1.7725 0.8209 0.0607
1.7775 0.8355 0.0618
1.7825 0.6965 0.0546
1.7875 0.7987 0.0585
1.7925 0.8351 0.0604
1.7975 0.7443 0.0575
1.8025 0.7277 0.0574
1.8075 0.7382 0.0581
1.8125 0.6468 0.0517
1.8175 0.5954 0.0512
1.8225 0.6258 0.0525
1.8275 0.6529 0.0542
1.8325 0.6296 0.0534
1.8375 0.6114 0.0528
1.8425 0.5107 0.0458
1.8475 0.5840 0.0508
1.8525 0.5934 0.0515
1.8575 0.6012 0.0519
1.8625 0.4503 0.0452
1.8675 0.5781 0.0501
1.8725 0.5023 0.0466
1.8775 0.4631 0.0452
1.8825 0.5781 0.0507
1.8875 0.4618 0.0457
1.8925 0.4845 0.0470
1.8975 0.5000 0.0462
1.9025 0.4896 0.0462
1.9075 0.4475 0.0445
1.9125 0.4666 0.0457
1.9175 0.4758 0.0462
1.9225 0.4295 0.0443
1.9275 0.4155 0.0424
1.9325 0.4193 0.0423
1.9375 0.3578 0.0402
1.9425 0.3322 0.0386
1.9475 0.3990 0.0428
1.9525 0.4025 0.0429
1.9575 0.3982 0.0408
1.9625 0.3721 0.0406
1.9675 0.3428 0.0388
1.9725 0.3627 0.0408
1.9775 0.3601 0.0405
1.9825 0.2911 0.0366
1.9875 0.2829 0.0345
1.9925 0.2653 0.0340
1.9975 0.2976 0.0366
2.0025 0.2583 0.0342
2.0075 0.2685 0.0349
2.0125 0.2272 0.0321
2.0175 0.2226 0.0308
2.0225 0.2601 0.0339
2.0275 0.2493 0.0333
2.0325 0.2997 0.0372
2.0375 0.2257 0.0319
2.0425 0.2047 0.0305
2.0475 0.2034 0.0297
2.0525 0.2599 0.0335
2.0575 0.2223 0.0317
2.0625 0.2247 0.0318
2.0675 0.1939 0.0296
2.0725 0.2307 0.0328
2.0775 0.2111 0.0305
2.0825 0.2476 0.0325
2.0875 0.1778 0.0281
2.0925 0.1803 0.0285
2.0975 0.1923 0.0297
2.1025 0.2144 0.0313
2.1075 0.1766 0.0283
2.1125 0.1737 0.0271
2.1175 0.1675 0.0272
2.1225 0.1632 0.0272
2.1275 0.1227 0.0236
2.1325 0.1251 0.0241
2.1375 0.1381 0.0252
2.1425 0.1374 0.0239
2.1475 0.1273 0.0236
2.1525 0.2069 0.0305
2.1575 0.1014 0.0216
2.1625 0.1205 0.0236
2.1675 0.1773 0.0284
2.1725 0.1138 0.0219
2.1775 0.1373 0.0246
2.1825 0.1081 0.0221
2.1875 0.1462 0.0258
2.1925 0.0735 0.0184
2.1975 0.0684 0.0177
2.2025 0.0854 0.0191
2.2075 0.0664 0.0171
2.2125 0.0445 0.0141
2.2175 0.0183 0.0091
2.2225 0.0457 0.0144
2.2275 0.0416 0.0138
2.2325 0.0396 0.0132
2.2375 0.0304 0.0115
2.2425 0.0135 0.0078
2.2475 0.0225 0.0101
2.2525 0.0318 0.0120
2.2575 0.0092 0.0065
2.2625 0.0047 0.0046
2.2675 0.0211 0.0094
2.2725 0.0000 1.0000
2.2775 0.0045 0.0045
2.2825 0.0046 0.0046
2.2875 0.0092 0.0065
2.2925 0.0093 0.0066
2.2975 0.0000 1.0000
2.3025 0.0044 0.0044
2.3075 0.0089 0.0063
2.3125 0.0137 0.0079
2.3175 0.0046 0.0046
2.3225 0.0046 0.0046
2.3275 0.0000 1.0000
2.3325 0.0176 0.0088
2.3375 0.0265 0.0108
2.3425 0.0045 0.0045
2.3475 0.0000 1.0000
2.3525 0.0046 0.0046
2.3575 0.0044 0.0044
2.3625 0.0085 0.0060
2.3675 0.0274 0.0112
2.3725 0.0135 0.0078
2.3775 0.0046 0.0046
2.3825 0.0139 0.0080
2.3875 0.0045 0.0045
2.3925 0.0000 1.0000
2.3975 0.0000 1.0000
2.4025 0.0090 0.0064
2.4075 0.0000 1.0000
2.4125 0.0046 0.0046
2.4175 0.0000 1.0000
2.4225 0.0042 0.0042
2.4275 0.0000 1.0000
2.4325 0.0045 0.0045
2.4375 0.0044 0.0045
2.4425 0.0046 0.0046
2.4475 0.0369 0.0130
2.4525 0.0125 0.0072
2.4575 0.0176 0.0088
2.4625 0.0134 0.0077
2.4675 0.0137 0.0080
2.4725 0.0410 0.0137
2.4775 0.0275 0.0113
2.4825 0.0252 0.0103
2.4875 0.0131 0.0076
2.4925 0.0089 0.0063
2.4975 0.0000 1.0000
2.5025 0.0046 0.0046
2.5075 0.0000 1.0000
2.5125 0.0000 1.0000
2.5175 0.0087 0.0062
2.5225 0.0000 1.0000
2.5275 0.0089 0.0063
2.5325 0.0140 0.0081
2.5375 0.0137 0.0079
2.5425 0.0123 0.0071
2.5475 0.0221 0.0099
2.5525 0.0223 0.0100
2.5575 0.0091 0.0064
2.5625 0.0136 0.0079
2.5675 0.0000 1.0000
2.5725 0.0083 0.0058
2.5775 0.0044 0.0044
2.5825 0.0045 0.0045
2.5875 0.0000 1.0000
2.5925 0.0000 1.0000
2.5975 0.0047 0.0047
2.6025 0.0000 1.0000
2.6075 0.0000 1.0000
2.6125 0.0090 0.0064
2.6175 0.0000 1.0000
2.6225 0.0000 1.0000
2.6275 0.0000 1.0000
2.6325 0.0000 1.0000
2.6375 0.0000 1.0000
2.6425 0.0045 0.0045
2.6475 0.0000 1.0000
2.6525 0.0000 1.0000
2.6575 0.0084 0.0060
2.6625 0.0043 0.0043
2.6675 0.0180 0.0090
2.6725 0.0224 0.0100
2.6775 0.0000 1.0000
2.6825 0.0046 0.0046
2.6875 0.0041 0.0041
2.6925 0.0044 0.0044
2.6975 0.0000 1.0000
0.0000 0.0000 1.0000
0.0000 0.0000 1.0000
0.0000 0.0000 1.0000
0.0000 0.0000 1.0000
0.0000 0.0000 1.0000
0.0000 0.0000 1.0000
0.0000 0.0000 1.0000
0.0000 0.0000 1.0000
0.0000 0.0000 1.0000
0.0000 0.0000 1.0000
0.0000 0.0000 1.0000
0.0000 0.0000 1.0000
0.0000 0.0000 1.0000
0.0000 0.0000 1.0000
