1.0725 0.9032 0.1630
1.0775 0.8491 0.1117
1.0825 0.6591 0.0789
1.0875 0.7798 0.0810
1.0925 0.9834 0.0863
1.0975 0.9422 0.0817
1.1025 0.9609 0.0731
1.1075 0.9467 0.0742
1.1125 0.8860 0.0694
1.1175 0.8955 0.0666
1.1225 0.9355 0.0652
1.1275 1.0179 0.0683
1.1325 0.8649 0.0623
1.1375 0.8554 0.0595
1.1425 0.9744 0.0639
1.1475 1.0000 0.0659
1.1525 0.9600 0.0647
1.1575 0.9993 0.0634
1.1625 1.0077 0.0653
1.1675 1.0350 0.0666
1.1725 1.1188 0.0690
1.1775 0.9889 0.0630
1.1825 1.0831 0.0685
1.1875 0.9753 0.0646
1.1925 1.0750 0.0668
1.1975 1.0740 0.0663
1.2025 1.2020 0.0711
1.2075 1.1341 0.0701
1.2125 1.1389 0.0682
1.2175 1.2188 0.0702
1.2225 1.2321 0.0727
1.2275 1.1915 0.0703
1.2325 1.2022 0.0705
1.2375 1.2096 0.0704
1.2425 1.2262 0.0710
1.2475 1.2502 0.0734
1.2525 1.2147 0.0703
1.2575 1.2566 0.0710
1.2625 1.2931 0.0737
1.2675 1.2695 0.0738
1.2725 1.3333 0.0736
1.2775 1.3623 0.0749
1.2825 1.3610 0.0761
1.2875 1.3772 0.0762
1.2925 1.3587 0.0760
1.2975 1.3412 0.0728
1.3025 1.3353 0.0749
1.3075 1.5603 0.0810
1.3125 1.3476 0.0761
1.3175 1.3863 0.0740
1.3225 1.4305 0.0774
1.3275 1.4292 0.0780
1.3325 1.5315 0.0811
1.3375 1.5327 0.0785
1.3425 1.5564 0.0810
1.3475 1.4026 0.0763
1.3525 1.4600 0.0797
1.3575 1.5995 0.0811
1.3625 1.6570 0.0827
1.3675 1.5918 0.0820
1.3725 1.4942 0.0794
1.3775 1.4762 0.0799
1.3825 1.6237 0.0811
1.3875 1.8386 0.0881
1.3925 1.7814 0.0867
1.3975 1.7226 0.0865
1.4025 1.5961 0.0815
1.4075 1.7002 0.0842
1.4125 1.6479 0.0832
1.4175 1.8001 0.0887
1.4225 1.7968 0.0884
1.4275 1.8502 0.0869
1.4325 1.7208 0.0849
1.4375 1.8002 0.0875
1.4425 1.8436 0.0897
1.4475 1.5642 0.0809
1.4525 1.8277 0.0874
1.4575 1.6981 0.0848
1.4625 1.8584 0.0897
1.4675 1.7113 0.0864
1.4725 1.8091 0.0866
1.4775 1.7817 0.0867
1.4825 1.7522 0.0865
1.4875 1.7490 0.0866
1.4925 1.6751 0.0859
1.4975 1.6904 0.0838
1.5025 1.6804 0.0840
1.5075 1.6851 0.0858
1.5125 1.5501 0.0819
1.5175 1.7167 0.0872
1.5225 1.6173 0.0808
1.5275 1.6061 0.0825
1.5325 1.8890 0.0914
1.5375 1.8062 0.0896
1.5425 1.6193 0.0846
1.5475 1.6493 0.0811
1.5525 1.5482 0.0819
1.5575 1.5437 0.0821
1.5625 1.7236 0.0864
1.5675 1.4498 0.0805
1.5725 1.5039 0.0785
1.5775 1.4398 0.0788
1.5825 1.5455 0.0820
1.5875 1.5965 0.0835
1.5925 1.5601 0.0836
1.5975 1.3994 0.0756
1.6025 1.4680 0.0790
1.6075 1.4071 0.0789
1.6125 1.4624 0.0806
1.6175 1.5472 0.0833
1.6225 1.3457 0.0744
1.6275 1.3597 0.0767
1.6325 1.4185 0.0782
1.6375 1.2652 0.0753
1.6425 1.3686 0.0780
1.6475 1.3001 0.0736
1.6525 1.3655 0.0766
1.6575 1.3721 0.0771
1.6625 1.1891 0.0730
1.6675 1.1515 0.0715
1.6725 1.1245 0.0692
1.6775 1.2221 0.0723
1.6825 0.9956 0.0659
1.6875 1.2066 0.0736
1.6925 1.0579 0.0684
1.6975 1.0772 0.0695
1.7025 1.0623 0.0663
1.7075 0.9662 0.0645
1.7125 1.0624 0.0687
1.7175 1.1536 0.0711
1.7225 1.0540 0.0691
1.7275 1.0634 0.0670
1.7325 0.9006 0.0624
1.7375 1.0264 0.0672
1.7425 1.0317 0.0680
1.7475 0.8175 0.0604
1.7525 0.9174 0.0647
1.7575 0.8653 0.0596
1.7625 0.7970 0.0587
1.7675 0.9511 0.0650
1.7725 0.7940 0.0597
1.7775 0.7127 0.0570
1.7825 0.7268 0.0557
1.7875 0.7516 0.0568
1.7925 0.7171 0.0560
1.7975 0.6953 0.0556
1.8025 0.7233 0.0572
1.8075 0.6606 0.0549
1.8125 0.6623 0.0523
1.8175 0.6787 0.0547
1.8225 0.6068 0.0517
1.8275 0.7296 0.0573
1.8325 0.6199 0.0530
1.8375 0.5987 0.0523
1.8425 0.5680 0.0483
1.8475 0.6683 0.0544
1.8525 0.5131 0.0479
1.8575 0.6327 0.0533
1.8625 0.6095 0.0526
1.8675 0.6090 0.0515
1.8725 0.5025 0.0466
1.8775 0.4894 0.0464
1.8825 0.4933 0.0468
1.8875 0.4216 0.0437
1.8925 0.5119 0.0483
1.8975 0.5220 0.0472
1.9025 0.3892 0.0412
1.9075 0.5228 0.0481
1.9125 0.4128 0.0430
1.9175 0.4044 0.0426
1.9225 0.3795 0.0416
1.9275 0.4421 0.0437
1.9325 0.4790 0.0452
1.9375 0.3624 0.0405
1.9425 0.3862 0.0416
1.9475 0.4037 0.0430
1.9525 0.3157 0.0380
1.9575 0.3562 0.0386
1.9625 0.3680 0.0404
1.9675 0.3599 0.0397
1.9725 0.3310 0.0390
1.9775 0.3277 0.0386
1.9825 0.3276 0.0389
1.9875 0.2617 0.0332
1.9925 0.2834 0.0351
1.9975 0.3964 0.0423
2.0025 0.2762 0.0354
2.0075 0.2908 0.0364
2.0125 0.3321 0.0389
2.0175 0.2692 0.0339
2.0225 0.2465 0.0330
2.0275 0.2135 0.0308
2.0325 0.3088 0.0377
2.0375 0.2343 0.0325
2.0425 0.1908 0.0295
2.0475 0.2640 0.0338
2.0525 0.2854 0.0351
2.0575 0.2176 0.0314
2.0625 0.2255 0.0319
2.0675 0.2388 0.0329
2.0725 0.1759 0.0286
2.0775 0.2112 0.0305
2.0825 0.1795 0.0277
2.0875 0.1774 0.0281
2.0925 0.1936 0.0295
2.0975 0.1465 0.0259
2.1025 0.2006 0.0303
2.1075 0.1850 0.0289
2.1125 0.1568 0.0258
2.1175 0.1806 0.0282
2.1225 0.1362 0.0249
2.1275 0.1407 0.0253
2.1325 0.1575 0.0270
2.1375 0.1659 0.0277
2.1425 0.1500 0.0250
2.1475 0.1492 0.0256
2.1525 0.1441 0.0255
2.1575 0.1520 0.0265
2.1625 0.1250 0.0241
2.1675 0.1682 0.0276
2.1725 0.1056 0.0211
2.1775 0.0974 0.0208
2.1825 0.1395 0.0251
2.1875 0.1186 0.0233
2.1925 0.0781 0.0189
2.1975 0.1051 0.0219
2.2025 0.0684 0.0171
2.2075 0.0620 0.0166
2.2125 0.0622 0.0166
2.2175 0.0365 0.0129
2.2225 0.0366 0.0129
2.2275 0.0277 0.0113
2.2325 0.0087 0.0062
2.2375 0.0174 0.0087
2.2425 0.0178 0.0089
2.2475 0.0135 0.0078
2.2525 0.0182 0.0091
2.2575 0.0184 0.0092
2.2625 0.0185 0.0092
2.2675 0.0252 0.0103
2.2725 0.0044 0.0044
2.2775 0.0133 0.0077
2.2825 0.0231 0.0103
2.2875 0.0277 0.0113
2.2925 0.0047 0.0047
2.2975 0.0084 0.0059
2.3025 0.0132 0.0077
2.3075 0.0222 0.0099
2.3125 0.0091 0.0064
2.3175 0.0325 0.0123
2.3225 0.0650 0.0173
2.3275 0.0428 0.0135
2.3325 0.0355 0.0125
2.3375 0.0352 0.0125
2.3425 0.0090 0.0064
2.3475 0.0182 0.0092
2.3525 0.0000 1.0000
2.3575 0.0044 0.0044
2.3625 0.0000 1.0000
2.3675 0.0092 0.0065
2.3725 0.0136 0.0078
2.3775 0.0091 0.0065
2.3825 0.0139 0.0080
2.3875 0.0134 0.0078
2.3925 0.0042 0.0042
2.3975 0.0000 1.0000
2.4025 0.0000 1.0000
2.4075 0.0045 0.0045
2.4125 0.0046 0.0046
2.4175 0.0046 0.0046
2.4225 0.0083 0.0059
2.4275 0.0000 1.0000
2.4325 0.0000 1.0000
2.4375 0.0314 0.0119
2.4425 0.0324 0.0122
2.4475 0.0276 0.0113
2.4525 0.0041 0.0041
2.4575 0.0133 0.0077
2.4625 0.0134 0.0077
2.4675 0.0092 0.0065
2.4725 0.0092 0.0065
2.4775 0.0046 0.0046
2.4825 0.0084 0.0059
2.4875 0.0044 0.0044
2.4925 0.0090 0.0063
2.4975 0.0182 0.0091
2.5025 0.0275 0.0112
2.5075 0.0231 0.0103
2.5125 0.0126 0.0073
2.5175 0.0131 0.0076
2.5225 0.0000 1.0000
2.5275 0.0089 0.0063
2.5325 0.0047 0.0047
2.5375 0.0137 0.0079
2.5425 0.0041 0.0041
2.5475 0.0089 0.0063
2.5525 0.0089 0.0063
2.5575 0.0091 0.0065
2.5625 0.0000 1.0000
2.5675 0.0000 1.0000
2.5725 0.0124 0.0072
2.5775 0.0044 0.0044
2.5825 0.0045 0.0045
2.5875 0.0000 1.0000
2.5925 0.0000 1.0000
2.5975 0.0047 0.0047
2.6025 0.0000 1.0000
2.6075 0.0045 0.0045
2.6125 0.0134 0.0077
2.6175 0.0000 1.0000
2.6225 0.0046 0.0046
2.6275 0.0132 0.0076
2.6325 0.0000 1.0000
2.6375 0.0045 0.0045
2.6425 0.0045 0.0045
2.6475 0.0000 1.0000
2.6525 0.0185 0.0092
2.6575 0.0000 1.0000
2.6625 0.0043 0.0043
2.6675 0.0045 0.0045
2.6725 0.0135 0.0078
2.6775 0.0000 1.0000
2.6825 0.0092 0.0065
2.6875 0.0246 0.0100
2.6925 0.0354 0.0125
2.6975 0.0488 0.0147
0.0000 0.0000 1.0000
0.0000 0.0000 1.0000
0.0000 0.0000 1.0000
0.0000 0.0000 1.0000
0.0000 0.0000 1.0000
0.0000 0.0000 1.0000
0.0000 0.0000 1.0000
0.0000 0.0000 1.0000
0.0000 0.0000 1.0000
0.0000 0.0000 1.0000
0.0000 0.0000 1.0000
0.0000 0.0000 1.0000
0.0000 0.0000 1.0000
0.0000 0.0000 1.0000
