1.0725 0.7562 0.1491
1.0775 1.0523 0.1244
1.0825 0.8094 0.0874
1.0875 0.9568 0.0897
1.0925 0.8324 0.0794
1.0975 0.9483 0.0820
1.1025 0.9484 0.0726
1.1075 0.8142 0.0688
1.1125 0.8207 0.0668
1.1175 0.9452 0.0684
1.1225 1.0267 0.0683
1.1275 0.8942 0.0640
1.1325 0.9772 0.0662
1.1375 0.9502 0.0627
1.1425 1.0262 0.0655
1.1475 0.9608 0.0646
1.1525 0.9517 0.0645
1.1575 1.0757 0.0657
1.1625 1.0258 0.0659
1.1675 1.0131 0.0659
1.1725 1.1153 0.0689
1.1775 0.8924 0.0599
1.1825 1.0268 0.0667
1.1875 1.0564 0.0672
1.1925 1.0498 0.0660
1.1975 1.1312 0.0681
1.2025 1.2100 0.0713
1.2075 1.1434 0.0704
1.2125 1.1836 0.0695
1.2175 1.1139 0.0672
1.2225 1.2447 0.0731
1.2275 1.2909 0.0732
1.2325 1.2771 0.0726
1.2375 1.1269 0.0680
1.2425 1.2262 0.0710
1.2475 1.2160 0.0724
1.2525 1.2795 0.0721
1.2575 1.2164 0.0699
1.2625 1.3271 0.0747
1.2675 1.2317 0.0727
1.2725 1.3409 0.0738
1.2775 1.3542 0.0747
1.2825 1.3916 0.0770
1.2875 1.3308 0.0749
1.2925 1.3546 0.0759
1.2975 1.4668 0.0761
1.3025 1.4602 0.0783
1.3075 1.5999 0.0820
1.3125 1.3931 0.0773
1.3175 1.4665 0.0761
1.3225 1.4302 0.0774
1.3275 1.4206 0.0778
1.3325 1.4580 0.0791
1.3375 1.5056 0.0778
1.3425 1.4964 0.0795
1.3475 1.5602 0.0805
1.3525 1.6782 0.0854
1.3575 1.6165 0.0816
1.3625 1.6325 0.0821
1.3675 1.6335 0.0830
1.3725 1.6466 0.0834
1.3775 1.6844 0.0854
1.3825 1.7059 0.0831
1.3875 1.4761 0.0789
1.3925 1.7013 0.0847
1.3975 1.8620 0.0900
1.4025 1.6338 0.0825
1.4075 1.8700 0.0883
1.4125 1.8365 0.0878
1.4175 1.5941 0.0834
1.4225 1.8313 0.0892
1.4275 1.7442 0.0844
1.4325 1.6193 0.0823
1.4375 1.8852 0.0896
1.4425 1.8081 0.0889
1.4475 1.8984 0.0891
1.4525 1.8404 0.0878
1.4575 2.0370 0.0929
1.4625 1.7851 0.0879
1.4675 1.8080 0.0889
1.4725 1.8549 0.0877
1.4775 1.7514 0.0860
1.4825 1.7521 0.0865
1.4875 1.8343 0.0887
1.4925 1.6788 0.0860
1.4975 1.6694 0.0832
1.5025 1.7102 0.0848
1.5075 1.8900 0.0908
1.5125 1.7328 0.0866
1.5175 1.6449 0.0853
1.5225 1.7668 0.0844
1.5275 1.6827 0.0844
1.5325 1.6370 0.0851
1.5375 1.7122 0.0872
1.5425 1.6412 0.0852
1.5475 1.5843 0.0794
1.5525 1.6251 0.0839
1.5575 1.6128 0.0839
1.5625 1.6486 0.0845
1.5675 1.5832 0.0841
1.5725 1.6512 0.0823
1.5775 1.4963 0.0803
1.5825 1.5469 0.0820
1.5875 1.5230 0.0816
1.5925 1.4360 0.0802
1.5975 1.4398 0.0767
1.6025 1.5225 0.0805
1.6075 1.3275 0.0766
1.6125 1.5155 0.0821
1.6175 1.3319 0.0773
1.6225 1.4698 0.0778
1.6275 1.2643 0.0740
1.6325 1.3231 0.0755
1.6375 1.3239 0.0770
1.6425 1.2893 0.0757
1.6475 1.3758 0.0757
1.6525 1.4221 0.0781
1.6575 1.1907 0.0718
1.6625 1.3101 0.0766
1.6675 1.0095 0.0670
1.6725 1.2135 0.0719
1.6775 1.1035 0.0687
1.6825 1.1357 0.0704
1.6875 1.0724 0.0693
1.6925 1.0538 0.0683
1.6975 1.0367 0.0682
1.7025 1.1117 0.0678
1.7075 1.0134 0.0661
1.7125 0.9908 0.0664
1.7175 1.1271 0.0703
1.7225 0.8729 0.0628
1.7275 1.0680 0.0671
1.7325 0.8833 0.0618
1.7375 0.9467 0.0646
1.7425 0.7800 0.0591
1.7475 0.8702 0.0623
1.7525 0.9137 0.0646
1.7575 0.7746 0.0563
1.7625 0.9052 0.0626
1.7675 0.8672 0.0621
1.7725 0.7579 0.0583
1.7775 0.8314 0.0616
1.7825 0.8251 0.0594
1.7875 0.7990 0.0586
1.7925 0.8170 0.0597
1.7975 0.6334 0.0531
1.8025 0.6605 0.0547
1.8075 0.7057 0.0568
1.8125 0.6839 0.0532
1.8175 0.6743 0.0545
1.8225 0.6476 0.0534
1.8275 0.5950 0.0518
1.8325 0.6839 0.0556
1.8375 0.5974 0.0522
1.8425 0.4939 0.0451
1.8475 0.6425 0.0533
1.8525 0.5760 0.0507
1.8575 0.5704 0.0506
1.8625 0.5771 0.0512
1.8675 0.5005 0.0467
1.8725 0.4982 0.0464
1.8775 0.4984 0.0469
1.8825 0.4271 0.0436
1.8875 0.5073 0.0479
1.8925 0.4982 0.0477
1.8975 0.4192 0.0423
1.9025 0.5158 0.0475
1.9075 0.5184 0.0479
1.9125 0.4084 0.0428
1.9175 0.4532 0.0451
1.9225 0.5029 0.0479
1.9275 0.3900 0.0411
1.9325 0.3424 0.0383
1.9375 0.4215 0.0437
1.9425 0.4580 0.0453
1.9475 0.3951 0.0426
1.9525 0.3701 0.0411
1.9575 0.3181 0.0365
1.9625 0.3853 0.0413
1.9675 0.3245 0.0377
1.9725 0.3587 0.0406
1.9775 0.3414 0.0394
1.9825 0.2771 0.0357
1.9875 0.2747 0.0340
1.9925 0.3133 0.0369
1.9975 0.2660 0.0346
2.0025 0.2627 0.0345
2.0075 0.2957 0.0367
2.0125 0.2413 0.0331
2.0175 0.2738 0.0342
2.0225 0.2953 0.0361
2.0275 0.2890 0.0358
2.0325 0.2536 0.0342
2.0375 0.2481 0.0334
2.0425 0.2410 0.0331
2.0475 0.2511 0.0330
2.0525 0.2422 0.0324
2.0575 0.2041 0.0304
2.0625 0.2070 0.0305
2.0675 0.2753 0.0353
2.0725 0.1853 0.0294
2.0775 0.2382 0.0324
2.0825 0.1878 0.0283
2.0875 0.2392 0.0326
2.0925 0.2071 0.0305
2.0975 0.1463 0.0259
2.1025 0.2053 0.0306
2.1075 0.1857 0.0290
2.1125 0.1608 0.0261
2.1175 0.1452 0.0253
2.1225 0.1861 0.0291
2.1275 0.1730 0.0280
2.1325 0.1528 0.0266
2.1375 0.1705 0.0280
2.1425 0.1458 0.0246
2.1475 0.1405 0.0248
2.1525 0.1802 0.0285
2.1575 0.1337 0.0248
2.1625 0.1390 0.0254
2.1675 0.1361 0.0249
2.1725 0.1435 0.0246
2.1775 0.1196 0.0230
2.1825 0.1443 0.0255
2.1875 0.1644 0.0274
2.1925 0.0828 0.0195
2.1975 0.1051 0.0219
2.2025 0.0727 0.0176
2.2075 0.0663 0.0171
2.2125 0.0490 0.0148
2.2175 0.0457 0.0144
2.2225 0.0411 0.0137
2.2275 0.0231 0.0103
2.2325 0.0351 0.0124
2.2375 0.0305 0.0115
2.2425 0.0224 0.0100
2.2475 0.0181 0.0090
2.2525 0.0226 0.0101
2.2575 0.0230 0.0103
2.2625 0.0322 0.0122
2.2675 0.0084 0.0060
2.2725 0.0133 0.0077
2.2775 0.0044 0.0044
2.2825 0.0000 1.0000
2.2875 0.0046 0.0046
2.2925 0.0000 1.0000
2.2975 0.0042 0.0042
2.3025 0.0044 0.0044
2.3075 0.0089 0.0063
2.3125 0.0045 0.0045
2.3175 0.0092 0.0065
2.3225 0.0000 1.0000
2.3275 0.0085 0.0060
2.3325 0.0131 0.0076
2.3375 0.0000 1.0000
2.3425 0.0136 0.0079
2.3475 0.0046 0.0046
2.3525 0.0322 0.0122
2.3575 0.0218 0.0098
2.3625 0.0000 1.0000
2.3675 0.0045 0.0046
2.3725 0.0045 0.0045
2.3775 0.0182 0.0091
2.3825 0.0279 0.0114
2.3875 0.0180 0.0090
2.3925 0.0000 1.0000
2.3975 0.0133 0.0077
2.4025 0.0180 0.0090
2.4075 0.0136 0.0079
2.4125 0.0000 1.0000
2.4175 0.0138 0.0080
2.4225 0.0249 0.0102
2.4275 0.0223 0.0100
2.4325 0.0090 0.0064
2.4375 0.0000 1.0000
2.4425 0.0046 0.0046
2.4475 0.0000 1.0000
2.4525 0.0000 1.0000
2.4575 0.0000 1.0000
2.4625 0.0000 1.0000
2.4675 0.0000 1.0000
2.4725 0.0091 0.0064
2.4775 0.0000 1.0000
2.4825 0.0042 0.0042
2.4875 0.0088 0.0062
2.4925 0.0090 0.0064
2.4975 0.0091 0.0064
2.5025 0.0000 1.0000
2.5075 0.0184 0.0092
2.5125 0.0168 0.0084
2.5175 0.0000 1.0000
2.5225 0.0000 1.0000
2.5275 0.0000 1.0000
2.5325 0.0047 0.0047
2.5375 0.0092 0.0065
2.5425 0.0000 1.0000
2.5475 0.0044 0.0044
2.5525 0.0000 1.0000
2.5575 0.0000 1.0000
2.5625 0.0000 1.0000
2.5675 0.0138 0.0080
2.5725 0.0041 0.0041
2.5775 0.0000 1.0000
2.5825 0.0000 1.0000
2.5875 0.0000 1.0000
2.5925 0.0000 1.0000
2.5975 0.0093 0.0066
2.6025 0.0041 0.0041
2.6075 0.0044 0.0044
2.6125 0.0044 0.0045
2.6175 0.0135 0.0078
2.6225 0.0000 1.0000
2.6275 0.0000 1.0000
2.6325 0.0000 1.0000
2.6375 0.0044 0.0044
2.6425 0.0045 0.0045
2.6475 0.0090 0.0064
2.6525 0.0139 0.0080
2.6575 0.0000 1.0000
2.6625 0.0043 0.0043
2.6675 0.0135 0.0078
2.6725 0.0000 1.0000
2.6775 0.0045 0.0045
2.6825 0.0000 1.0000
2.6875 0.0000 1.0000
2.6925 0.0000 1.0000
2.6975 0.0089 0.0063
0.0000 0.0000 1.0000
0.0000 0.0000 1.0000
0.0000 0.0000 1.0000
0.0000 0.0000 1.0000
0.0000 0.0000 1.0000
0.0000 0.0000 1.0000
0.0000 0.0000 1.0000
0.0000 0.0000 1.0000
0.0000 0.0000 1.0000
0.0000 0.0000 1.0000
0.0000 0.0000 1.0000
0.0000 0.0000 1.0000
0.0000 0.0000 1.0000
0.0000 0.0000 1.0000
