1.0725 0.6982 0.1433
1.0775 0.4682 0.0830
1.0825 0.5558 0.0724
1.0875 0.5615 0.0687
1.0925 0.6197 0.0685
1.0975 0.5589 0.0630
1.1025 0.6054 0.0580
1.1075 0.5928 0.0587
1.1125 0.5651 0.0554
1.1175 0.5938 0.0542
1.1225 0.6720 0.0553
1.1275 0.6284 0.0537
1.1325 0.6768 0.0551
1.1375 0.6235 0.0508
1.1425 0.6072 0.0504
1.1475 0.6568 0.0534
1.1525 0.7687 0.0579
1.1575 0.7505 0.0549
1.1625 0.6990 0.0544
1.1675 0.6867 0.0543
1.1725 0.8258 0.0593
1.1775 0.9126 0.0605
1.1825 0.7410 0.0566
1.1875 0.9107 0.0624
1.1925 0.8964 0.0610
1.1975 0.8324 0.0584
1.2025 0.9081 0.0618
1.2075 0.8658 0.0612
1.2125 0.8693 0.0596
1.2175 0.8953 0.0602
1.2225 0.8977 0.0621
1.2275 0.9715 0.0635
1.2325 0.9797 0.0636
1.2375 1.0658 0.0661
1.2425 1.0373 0.0653
1.2475 1.0773 0.0681
1.2525 1.0028 0.0638
1.2575 1.0635 0.0654
1.2625 0.9998 0.0648
1.2675 1.0076 0.0658
1.2725 0.9630 0.0626
1.2775 0.8887 0.0605
1.2825 1.0292 0.0662
1.2875 1.0769 0.0674
1.2925 1.0780 0.0677
1.2975 1.0331 0.0639
1.3025 1.2901 0.0736
1.3075 1.4722 0.0787
1.3125 1.7198 0.0859
1.3175 2.1928 0.0931
1.3225 2.7852 0.1080
1.3275 3.0712 0.1143
1.3325 3.6125 0.1245
1.3375 3.8254 0.1239
1.3425 3.4140 0.1200
1.3475 2.6080 0.1040
1.3525 2.1463 0.0966
1.3575 1.4932 0.0784
1.3625 1.4680 0.0779
1.3675 1.3590 0.0757
1.3725 1.3127 0.0744
1.3775 1.2123 0.0724
1.3825 1.4988 0.0779
1.3875 1.6358 0.0831
1.3925 1.6078 0.0824
1.3975 1.6481 0.0847
1.4025 1.6508 0.0829
1.4075 1.5744 0.0810
1.4125 1.5341 0.0803
1.4175 1.6818 0.0857
1.4225 1.8401 0.0894
1.4275 2.7357 0.1057
1.4325 4.9426 0.1438
1.4375 8.3024 0.1880
1.4425 9.6705 0.2055
1.4475 5.8528 0.1565
1.4525 2.8236 0.1087
1.4575 1.8090 0.0876
1.4625 1.8579 0.0897
1.4675 1.7198 0.0867
1.4725 1.6469 0.0827
1.4775 1.6753 0.0841
1.4825 1.5211 0.0806
1.4875 1.4524 0.0790
1.4925 1.5207 0.0818
1.4975 1.4994 0.0789
1.5025 1.3996 0.0767
1.5075 1.5415 0.0820
1.5125 1.5366 0.0816
1.5175 1.5261 0.0822
1.5225 1.3595 0.0740
1.5275 1.5933 0.0822
1.5325 1.5262 0.0822
1.5375 1.5613 0.0833
1.5425 1.4643 0.0805
1.5475 1.3459 0.0732
1.5525 1.5132 0.0809
1.5575 1.8955 0.0910
1.5625 1.9046 0.0908
1.5675 2.3143 0.1016
1.5725 2.9705 0.1103
1.5775 2.2803 0.0991
1.5825 2.0900 0.0953
1.5875 1.8683 0.0903
1.5925 1.5426 0.0832
1.5975 1.5298 0.0790
1.6025 1.6976 0.0850
1.6075 1.2524 0.0744
1.6125 1.5108 0.0819
1.6175 1.3185 0.0769
1.6225 1.4078 0.0761
1.6275 1.3473 0.0764
1.6325 1.2283 0.0728
1.6375 1.1844 0.0729
1.6425 1.1562 0.0717
1.6475 1.0548 0.0663
1.6525 1.1429 0.0700
1.6575 1.0525 0.0675
1.6625 1.2112 0.0737
1.6675 1.1425 0.0713
1.6725 1.1364 0.0695
1.6775 1.2225 0.0723
1.6825 1.1101 0.0696
1.6875 1.2330 0.0744
1.6925 1.3413 0.0770
1.6975 1.6199 0.0852
1.7025 2.1416 0.0941
1.7075 2.7079 0.1080
1.7125 3.5064 0.1248
1.7175 3.3876 0.1219
1.7225 3.2345 0.1210
1.7275 2.3005 0.0985
1.7325 1.7864 0.0879
1.7375 1.4405 0.0797
1.7425 1.3816 0.0787
1.7475 1.2642 0.0751
1.7525 1.1146 0.0713
1.7575 1.1393 0.0683
1.7625 1.0822 0.0684
1.7675 0.9381 0.0646
1.7725 1.0718 0.0693
1.7775 0.8588 0.0626
1.7825 0.7781 0.0577
1.7875 0.7989 0.0586
1.7925 0.8692 0.0616
1.7975 0.7309 0.0570
1.8025 0.6698 0.0551
1.8075 0.6877 0.0560
1.8125 0.7413 0.0553
1.8175 0.7186 0.0563
1.8225 0.7802 0.0586
1.8275 0.6217 0.0529
1.8325 0.6561 0.0545
1.8375 0.5978 0.0522
1.8425 0.6754 0.0527
1.8475 0.5796 0.0506
1.8525 0.6069 0.0521
1.8575 0.5563 0.0499
1.8625 0.5593 0.0504
1.8675 0.5960 0.0509
1.8725 0.6240 0.0520
1.8775 0.5509 0.0493
1.8825 0.5651 0.0501
1.8875 0.5571 0.0502
1.8925 0.5393 0.0496
1.8975 0.4742 0.0450
1.9025 0.5332 0.0483
1.9075 0.5937 0.0513
1.9125 0.5206 0.0483
1.9175 0.5653 0.0503
1.9225 0.5578 0.0505
1.9275 0.5242 0.0476
1.9325 0.5004 0.0462
1.9375 0.4800 0.0466
1.9425 0.4581 0.0453
1.9475 0.4178 0.0438
1.9525 0.4022 0.0429
1.9575 0.3857 0.0402
1.9625 0.3413 0.0389
1.9675 0.4651 0.0452
1.9725 0.3718 0.0413
1.9775 0.4279 0.0441
1.9825 0.3643 0.0410
1.9875 0.3633 0.0392
1.9925 0.3177 0.0372
1.9975 0.3609 0.0403
2.0025 0.3171 0.0379
2.0075 0.4593 0.0457
2.0125 0.3638 0.0407
2.0175 0.4276 0.0427
2.0225 0.4585 0.0449
2.0275 0.3777 0.0410
2.0325 0.3088 0.0377
2.0375 0.3247 0.0382
2.0425 0.4091 0.0431
2.0475 0.3378 0.0382
2.0525 0.3807 0.0406
2.0575 0.2903 0.0362
2.0625 0.3199 0.0380
2.0675 0.3153 0.0378
2.0725 0.2640 0.0350
2.0775 0.2464 0.0329
2.0825 0.2647 0.0336
2.0875 0.2970 0.0363
2.0925 0.3106 0.0374
2.0975 0.3161 0.0381
2.1025 0.2095 0.0309
2.1075 0.1491 0.0260
2.1125 0.1995 0.0291
2.1175 0.1763 0.0279
2.1225 0.1909 0.0295
2.1275 0.1770 0.0284
2.1325 0.1946 0.0300
2.1375 0.1981 0.0302
2.1425 0.1789 0.0273
2.1475 0.1535 0.0259
2.1525 0.1799 0.0285
2.1575 0.1472 0.0260
2.1625 0.1434 0.0258
2.1675 0.1773 0.0284
2.1725 0.1647 0.0264
2.1775 0.1327 0.0242
2.1825 0.0765 0.0186
2.1875 0.1143 0.0228
2.1925 0.1102 0.0225
2.1975 0.1373 0.0250
2.2025 0.0940 0.0200
2.2075 0.0973 0.0208
2.2125 0.0713 0.0178
2.2175 0.0548 0.0158
2.2225 0.0685 0.0177
2.2275 0.0508 0.0153
2.2325 0.0350 0.0124
2.2375 0.0087 0.0062
2.2425 0.0224 0.0100
2.2475 0.0225 0.0101
2.2525 0.0455 0.0144
2.2575 0.0322 0.0122
2.2625 0.0185 0.0092
2.2675 0.0042 0.0042
2.2725 0.0000 1.0000
2.2775 0.0045 0.0045
2.2825 0.0000 1.0000
2.2875 0.0000 1.0000
2.2925 0.0046 0.0046
2.2975 0.0084 0.0059
2.3025 0.0089 0.0063
2.3075 0.0178 0.0089
2.3125 0.0000 1.0000
2.3175 0.0093 0.0066
2.3225 0.0094 0.0066
2.3275 0.0085 0.0060
2.3325 0.0044 0.0044
2.3375 0.0044 0.0044
2.3425 0.0091 0.0064
2.3475 0.0047 0.0046
2.3525 0.0137 0.0079
2.3575 0.0044 0.0044
2.3625 0.0043 0.0043
2.3675 0.0000 1.0000
2.3725 0.0045 0.0045
2.3775 0.0000 1.0000
2.3825 0.0139 0.0080
2.3875 0.0090 0.0064
2.3925 0.0042 0.0042
2.3975 0.0044 0.0044
2.4025 0.0045 0.0045
2.4075 0.0137 0.0079
2.4125 0.0093 0.0065
2.4175 0.0046 0.0046
2.4225 0.0083 0.0059
2.4275 0.0090 0.0063
2.4325 0.0000 1.0000
2.4375 0.0180 0.0090
2.4425 0.0230 0.0103
2.4475 0.0230 0.0103
2.4525 0.0124 0.0072
2.4575 0.0088 0.0063
2.4625 0.0089 0.0063
2.4675 0.0183 0.0092
2.4725 0.0228 0.0102
2.4775 0.0230 0.0103
2.4825 0.0084 0.0059
2.4875 0.0350 0.0124
2.4925 0.0045 0.0045
2.4975 0.0228 0.0102
2.5025 0.0092 0.0065
2.5075 0.0000 1.0000
2.5125 0.0042 0.0042
2.5175 0.0088 0.0062
2.5225 0.0227 0.0101
2.5275 0.0000 1.0000
2.5325 0.0000 1.0000
2.5375 0.0046 0.0046
2.5425 0.0000 1.0000
2.5475 0.0088 0.0063
2.5525 0.0045 0.0045
2.5575 0.0000 1.0000
2.5625 0.0046 0.0046
2.5675 0.0184 0.0092
2.5725 0.0124 0.0072
2.5775 0.0045 0.0044
2.5825 0.0090 0.0063
2.5875 0.0092 0.0065
2.5925 0.0000 1.0000
2.5975 0.0046 0.0047
2.6025 0.0123 0.0071
2.6075 0.0089 0.0063
2.6125 0.0044 0.0045
2.6175 0.0136 0.0079
2.6225 0.0183 0.0091
2.6275 0.0000 1.0000
2.6325 0.0000 1.0000
2.6375 0.0089 0.0063
2.6425 0.0045 0.0045
2.6475 0.0000 1.0000
2.6525 0.0000 1.0000
2.6575 0.0000 1.0000
2.6625 0.0000 1.0000
2.6675 0.0045 0.0045
2.6725 0.0180 0.0090
2.6775 0.0183 0.0091
2.6825 0.0137 0.0079
2.6875 0.0123 0.0071
2.6925 0.0088 0.0062
2.6975 0.0178 0.0089
0.0000 0.0000 1.0000
0.0000 0.0000 1.0000
0.0000 0.0000 1.0000
0.0000 0.0000 1.0000
0.0000 0.0000 1.0000
0.0000 0.0000 1.0000
0.0000 0.0000 1.0000
0.0000 0.0000 1.0000
0.0000 0.0000 1.0000
0.0000 0.0000 1.0000
0.0000 0.0000 1.0000
0.0000 0.0000 1.0000
0.0000 0.0000 1.0000
0.0000 0.0000 1.0000
