1.0725 0.6108 0.1340
1.0775 0.6586 0.0984
1.0825 0.6497 0.0783
1.0875 0.6211 0.0722
1.0925 0.6284 0.0690
1.0975 0.6436 0.0676
1.1025 0.6159 0.0585
1.1075 0.5745 0.0578
1.1125 0.5757 0.0559
1.1175 0.6135 0.0551
1.1225 0.7453 0.0582
1.1275 0.7197 0.0575
1.1325 0.6359 0.0534
1.1375 0.7234 0.0547
1.1425 0.7451 0.0558
1.1475 0.7866 0.0585
1.1525 0.7729 0.0581
1.1575 0.7139 0.0535
1.1625 0.6949 0.0543
1.1675 0.7986 0.0585
1.1725 0.8805 0.0612
1.1775 0.8479 0.0584
1.1825 0.8970 0.0623
1.1875 0.8854 0.0615
1.1925 0.9458 0.0626
1.1975 0.8074 0.0575
1.2025 0.9031 0.0616
1.2075 0.9185 0.0631
1.2125 0.8941 0.0604
1.2175 0.9476 0.0619
1.2225 0.8503 0.0604
1.2275 0.8595 0.0597
1.2325 0.8598 0.0596
1.2375 0.9268 0.0616
1.2425 0.9093 0.0612
1.2475 1.0903 0.0686
1.2525 1.0769 0.0662
1.2575 0.9672 0.0623
1.2625 1.0794 0.0673
1.2675 1.1331 0.0697
1.2725 0.8934 0.0603
1.2775 0.9426 0.0623
1.2825 0.9481 0.0635
1.2875 0.9419 0.0630
1.2925 1.1362 0.0695
1.2975 1.0209 0.0635
1.3025 1.2100 0.0713
1.3075 1.3095 0.0742
1.3125 1.6477 0.0841
1.3175 2.0081 0.0891
1.3225 2.4420 0.1011
1.3275 3.0877 0.1146
1.3325 3.6719 0.1255
1.3375 3.8730 0.1247
1.3425 3.5324 0.1221
1.3475 2.6793 0.1054
1.3525 2.1249 0.0961
1.3575 1.5338 0.0794
1.3625 1.4293 0.0769
1.3675 1.3050 0.0742
1.3725 1.2791 0.0735
1.3775 1.2988 0.0750
1.3825 1.3848 0.0749
1.3875 1.5774 0.0816
1.3925 1.7303 0.0854
1.3975 1.8315 0.0892
1.4025 1.5050 0.0792
1.4075 1.3709 0.0756
1.4125 1.4505 0.0781
1.4175 1.6694 0.0854
1.4225 1.6265 0.0841
1.4275 2.4092 0.0992
1.4325 3.8803 0.1274
1.4375 7.5696 0.1795
1.4425 9.9788 0.2087
1.4475 7.6837 0.1793
1.4525 3.3982 0.1192
1.4575 2.1602 0.0957
1.4625 1.7331 0.0866
1.4675 1.5856 0.0832
1.4725 1.7676 0.0856
1.4775 1.5237 0.0802
1.4825 1.3765 0.0767
1.4875 1.6365 0.0838
1.4925 1.4852 0.0809
1.4975 1.4746 0.0782
1.5025 1.4874 0.0791
1.5075 1.4669 0.0800
1.5125 1.4080 0.0781
1.5175 1.4199 0.0793
1.5225 1.4563 0.0766
1.5275 1.4495 0.0784
1.5325 1.6592 0.0857
1.5375 1.4676 0.0808
1.5425 1.3532 0.0774
1.5475 1.4767 0.0767
1.5525 1.5345 0.0815
1.5575 1.5128 0.0813
1.5625 1.7971 0.0882
1.5675 2.5659 0.1070
1.5725 2.7247 0.1057
1.5775 2.6398 0.1067
1.5825 2.4500 0.1032
1.5875 2.1263 0.0964
1.5925 1.7251 0.0880
1.5975 1.5138 0.0786
1.6025 1.4414 0.0783
1.6075 1.4073 0.0789
1.6125 1.4310 0.0797
1.6175 1.2734 0.0756
1.6225 1.4693 0.0778
1.6275 1.4509 0.0793
1.6325 1.4318 0.0786
1.6375 1.3545 0.0779
1.6425 1.1296 0.0709
1.6475 1.2245 0.0714
1.6525 1.1685 0.0708
1.6575 1.0618 0.0678
1.6625 1.1842 0.0729
1.6675 1.1206 0.0706
1.6725 1.0856 0.0680
1.6775 1.1807 0.0710
1.6825 1.1047 0.0695
1.6875 1.1484 0.0718
1.6925 1.2169 0.0734
1.6975 1.4364 0.0803
1.7025 1.6326 0.0821
1.7075 2.0226 0.0934
1.7125 3.0567 0.1166
1.7175 3.5872 0.1254
1.7225 3.2936 0.1221
1.7275 2.8834 0.1103
1.7325 2.3675 0.1012
1.7375 1.6912 0.0863
1.7425 1.5649 0.0838
1.7475 1.2455 0.0746
1.7525 1.1002 0.0709
1.7575 1.0169 0.0646
1.7625 0.9133 0.0629
1.7675 0.9467 0.0649
1.7725 0.9732 0.0661
1.7775 0.9542 0.0660
1.7825 0.9274 0.0630
1.7875 0.7256 0.0558
1.7925 0.7647 0.0578
1.7975 0.7844 0.0590
1.8025 0.7367 0.0577
1.8075 0.7422 0.0582
1.8125 0.7623 0.0561
1.8175 0.7016 0.0556
1.8225 0.7004 0.0555
1.8275 0.6799 0.0553
1.8325 0.6613 0.0547
1.8375 0.6021 0.0524
1.8425 0.6255 0.0507
1.8475 0.6368 0.0531
1.8525 0.6121 0.0523
1.8575 0.5834 0.0511
1.8625 0.5635 0.0506
1.8675 0.5743 0.0500
1.8725 0.5327 0.0480
1.8775 0.6436 0.0532
1.8825 0.5607 0.0499
1.8875 0.5029 0.0477
1.8925 0.5033 0.0479
1.8975 0.5296 0.0476
1.9025 0.4724 0.0454
1.9075 0.4564 0.0449
1.9125 0.5607 0.0501
1.9175 0.5435 0.0494
1.9225 0.6810 0.0558
1.9275 0.5112 0.0470
1.9325 0.4449 0.0436
1.9375 0.4713 0.0462
1.9425 0.3730 0.0409
1.9475 0.4133 0.0435
1.9525 0.4478 0.0452
1.9575 0.4860 0.0451
1.9625 0.4557 0.0449
1.9675 0.3685 0.0402
1.9725 0.3995 0.0428
1.9775 0.3645 0.0407
1.9825 0.4340 0.0447
1.9875 0.3379 0.0378
1.9925 0.3480 0.0389
1.9975 0.3876 0.0418
2.0025 0.3987 0.0425
2.0075 0.4140 0.0434
2.0125 0.3684 0.0409
2.0175 0.4018 0.0414
2.0225 0.4276 0.0434
2.0275 0.5205 0.0481
2.0325 0.4106 0.0435
2.0375 0.3245 0.0382
2.0425 0.3550 0.0402
2.0475 0.3464 0.0387
2.0525 0.3638 0.0397
2.0575 0.3088 0.0374
2.0625 0.2521 0.0337
2.0675 0.3291 0.0386
2.0725 0.3561 0.0407
2.0775 0.3122 0.0371
2.0825 0.2263 0.0311
2.0875 0.2883 0.0358
2.0925 0.2967 0.0366
2.0975 0.2428 0.0334
2.1025 0.2329 0.0326
2.1075 0.1943 0.0296
2.1125 0.2373 0.0317
2.1175 0.1936 0.0292
2.1225 0.2273 0.0321
2.1275 0.2089 0.0308
2.1325 0.2039 0.0307
2.1375 0.2212 0.0319
2.1425 0.1668 0.0264
2.1475 0.1228 0.0232
2.1525 0.2116 0.0309
2.1575 0.1933 0.0298
2.1625 0.1530 0.0266
2.1675 0.1363 0.0249
2.1725 0.1520 0.0253
2.1775 0.1106 0.0221
2.1825 0.1394 0.0251
2.1875 0.0959 0.0209
2.1925 0.1240 0.0238
2.1975 0.0821 0.0194
2.2025 0.0639 0.0165
2.2075 0.0487 0.0147
2.2125 0.0579 0.0160
2.2175 0.0367 0.0129
2.2225 0.0274 0.0112
2.2275 0.0230 0.0103
2.2325 0.0350 0.0124
2.2375 0.0217 0.0097
2.2425 0.0224 0.0100
2.2475 0.0091 0.0064
2.2525 0.0182 0.0091
2.2575 0.0138 0.0080
2.2625 0.0231 0.0103
2.2675 0.0126 0.0073
2.2725 0.0089 0.0063
2.2775 0.0045 0.0045
2.2825 0.0046 0.0046
2.2875 0.0231 0.0103
2.2925 0.0000 1.0000
2.2975 0.0042 0.0042
2.3025 0.0132 0.0077
2.3075 0.0354 0.0125
2.3125 0.0408 0.0136
2.3175 0.0324 0.0123
2.3225 0.0279 0.0114
2.3275 0.0172 0.0086
2.3325 0.0133 0.0076
2.3375 0.0220 0.0099
2.3425 0.0090 0.0064
2.3475 0.0093 0.0065
2.3525 0.0092 0.0065
2.3575 0.0174 0.0087
2.3625 0.0085 0.0060
2.3675 0.0137 0.0079
2.3725 0.0180 0.0090
2.3775 0.0228 0.0102
2.3825 0.0417 0.0139
2.3875 0.0225 0.0101
2.3925 0.0042 0.0042
2.3975 0.0133 0.0077
2.4025 0.0090 0.0064
2.4075 0.0091 0.0064
2.4125 0.0232 0.0104
2.4175 0.0416 0.0138
2.4225 0.0083 0.0059
2.4275 0.0089 0.0063
2.4325 0.0136 0.0078
2.4375 0.0225 0.0101
2.4425 0.0092 0.0065
2.4475 0.0138 0.0080
2.4525 0.0000 1.0000
2.4575 0.0044 0.0044
2.4625 0.0044 0.0045
2.4675 0.0092 0.0065
2.4725 0.0137 0.0079
2.4775 0.0046 0.0046
2.4825 0.0084 0.0059
2.4875 0.0087 0.0062
2.4925 0.0000 1.0000
2.4975 0.0000 1.0000
2.5025 0.0046 0.0046
2.5075 0.0046 0.0046
2.5125 0.0042 0.0042
2.5175 0.0088 0.0062
2.5225 0.0045 0.0045
2.5275 0.0044 0.0045
2.5325 0.0233 0.0104
2.5375 0.0046 0.0046
2.5425 0.0000 1.0000
2.5475 0.0000 1.0000
2.5525 0.0000 1.0000
2.5575 0.0137 0.0079
2.5625 0.0092 0.0065
2.5675 0.0000 1.0000
2.5725 0.0000 1.0000
2.5775 0.0132 0.0076
2.5825 0.0090 0.0064
2.5875 0.0046 0.0046
2.5925 0.0135 0.0078
2.5975 0.0095 0.0067
2.6025 0.0041 0.0041
2.6075 0.0000 1.0000
2.6125 0.0000 1.0000
2.6175 0.0000 1.0000
2.6225 0.0046 0.0046
2.6275 0.0044 0.0044
2.6325 0.0127 0.0074
2.6375 0.0000 1.0000
2.6425 0.0045 0.0045
2.6475 0.0045 0.0045
2.6525 0.0092 0.0065
2.6575 0.0042 0.0042
2.6625 0.0043 0.0043
2.6675 0.0090 0.0063
2.6725 0.0000 1.0000
2.6775 0.0000 1.0000
2.6825 0.0000 1.0000
2.6875 0.0041 0.0041
2.6925 0.0044 0.0044
2.6975 0.0000 1.0000
0.0000 0.0000 1.0000
0.0000 0.0000 1.0000
0.0000 0.0000 1.0000
0.0000 0.0000 1.0000
0.0000 0.0000 1.0000
0.0000 0.0000 1.0000
0.0000 0.0000 1.0000
0.0000 0.0000 1.0000
0.0000 0.0000 1.0000
0.0000 0.0000 1.0000
0.0000 0.0000 1.0000
0.0000 0.0000 1.0000
0.0000 0.0000 1.0000
0.0000 0.0000 1.0000
