1.0725 0.7281 0.1463
1.0775 0.6002 0.0939
1.0825 0.8660 0.0904
1.0875 0.8808 0.0860
1.0925 0.7040 0.0730
1.0975 0.7925 0.0750
1.1025 0.7838 0.0660
1.1075 0.7902 0.0678
1.1125 0.8802 0.0692
1.1175 0.8515 0.0649
1.1225 0.8590 0.0625
1.1275 0.8248 0.0615
1.1325 0.8470 0.0616
1.1375 0.7808 0.0568
1.1425 0.9538 0.0632
1.1475 0.9435 0.0640
1.1525 0.9645 0.0649
1.1575 0.9192 0.0608
1.1625 0.9573 0.0637
1.1675 0.9486 0.0638
1.1725 0.9571 0.0638
1.1775 0.9523 0.0618
1.1825 1.0004 0.0658
1.1875 0.9750 0.0645
1.1925 1.0420 0.0658
1.1975 1.0782 0.0665
1.2025 1.1350 0.0691
1.2075 1.1484 0.0705
1.2125 1.0043 0.0640
1.2175 1.0608 0.0655
1.2225 1.1805 0.0712
1.2275 1.0995 0.0675
1.2325 1.1204 0.0680
1.2375 1.0824 0.0666
1.2425 1.0946 0.0671
1.2475 1.1986 0.0719
1.2525 1.1822 0.0693
1.2575 1.2518 0.0709
1.2625 1.3818 0.0762
1.2675 1.2443 0.0731
1.2725 1.3653 0.0745
1.2775 1.1645 0.0692
1.2825 1.3360 0.0754
1.2875 1.2936 0.0739
1.2925 1.3800 0.0766
1.2975 1.4395 0.0754
1.3025 1.4432 0.0779
1.3075 1.4463 0.0780
1.3125 1.4197 0.0781
1.3175 1.5607 0.0785
1.3225 1.6307 0.0826
1.3275 1.8376 0.0884
1.3325 1.9657 0.0919
1.3375 1.7467 0.0838
1.3425 1.9472 0.0906
1.3475 1.7677 0.0856
1.3525 1.7206 0.0865
1.3575 1.5792 0.0806
1.3625 1.5954 0.0812
1.3675 1.7229 0.0853
1.3725 1.6626 0.0838
1.3775 1.7495 0.0870
1.3825 1.6680 0.0822
1.3875 1.7510 0.0860
1.3925 1.8694 0.0888
1.3975 1.7880 0.0882
1.4025 1.9587 0.0903
1.4075 1.7836 0.0862
1.4125 1.6304 0.0828
1.4175 1.7996 0.0886
1.4225 2.1101 0.0958
1.4275 2.0909 0.0924
1.4325 2.5063 0.1024
1.4375 3.3363 0.1192
1.4425 3.1938 0.1181
1.4475 2.2966 0.0980
1.4525 1.9537 0.0904
1.4575 1.9743 0.0915
1.4625 1.8537 0.0896
1.4675 1.9916 0.0933
1.4725 1.8758 0.0882
1.4775 1.8481 0.0883
1.4825 1.7616 0.0868
1.4875 1.9336 0.0911
1.4925 2.0573 0.0952
1.4975 1.8646 0.0880
1.5025 1.9381 0.0902
1.5075 1.8993 0.0911
1.5125 1.7667 0.0875
1.5175 1.7556 0.0881
1.5225 1.8474 0.0863
1.5275 1.8182 0.0878
1.5325 1.8973 0.0916
1.5375 1.7745 0.0888
1.5425 1.7071 0.0869
1.5475 1.7633 0.0838
1.5525 1.7640 0.0874
1.5575 1.6340 0.0845
1.5625 1.8959 0.0906
1.5675 1.8961 0.0920
1.5725 1.9915 0.0903
1.5775 1.8450 0.0892
1.5825 1.5942 0.0833
1.5875 1.8158 0.0890
1.5925 1.7296 0.0881
1.5975 1.5581 0.0797
1.6025 1.5230 0.0805
1.6075 1.4908 0.0812
1.6125 1.5332 0.0825
1.6175 1.6011 0.0847
1.6225 1.4495 0.0772
1.6275 1.4892 0.0803
1.6325 1.5001 0.0804
1.6375 1.4845 0.0816
1.6425 1.4178 0.0794
1.6475 1.4214 0.0770
1.6525 1.4905 0.0800
1.6575 1.4004 0.0779
1.6625 1.2518 0.0749
1.6675 1.3599 0.0777
1.6725 1.2945 0.0742
1.6775 1.2608 0.0734
1.6825 1.1750 0.0716
1.6875 1.4347 0.0802
1.6925 1.3150 0.0763
1.6975 1.3194 0.0769
1.7025 1.3972 0.0760
1.7075 1.3930 0.0775
1.7125 1.6530 0.0857
1.7175 1.3776 0.0777
1.7225 1.3938 0.0794
1.7275 1.3672 0.0760
1.7325 1.1514 0.0706
1.7375 0.9909 0.0661
1.7425 1.0088 0.0673
1.7475 1.0720 0.0692
1.7525 0.9627 0.0663
1.7575 0.8487 0.0590
1.7625 0.8486 0.0606
1.7675 0.8754 0.0624
1.7725 0.8790 0.0628
1.7775 0.7990 0.0604
1.7825 0.8419 0.0600
1.7875 0.9231 0.0629
1.7925 0.8914 0.0624
1.7975 0.8061 0.0599
1.8025 0.7911 0.0598
1.8075 0.8053 0.0606
1.8125 0.6749 0.0528
1.8175 0.6784 0.0547
1.8225 0.7539 0.0576
1.8275 0.6625 0.0546
1.8325 0.7059 0.0565
1.8375 0.5474 0.0500
1.8425 0.6629 0.0522
1.8475 0.6549 0.0538
1.8525 0.6028 0.0519
1.8575 0.5742 0.0507
1.8625 0.5687 0.0508
1.8675 0.5874 0.0505
1.8725 0.5201 0.0474
1.8775 0.6393 0.0531
1.8825 0.6097 0.0521
1.8875 0.5754 0.0510
1.8925 0.4708 0.0464
1.8975 0.4959 0.0460
1.9025 0.5156 0.0475
1.9075 0.5270 0.0483
1.9125 0.4484 0.0448
1.9175 0.3994 0.0423
1.9225 0.4248 0.0440
1.9275 0.4330 0.0433
1.9325 0.4792 0.0453
1.9375 0.4982 0.0475
1.9425 0.4221 0.0435
1.9475 0.4045 0.0431
1.9525 0.4343 0.0445
1.9575 0.3975 0.0408
1.9625 0.2657 0.0343
1.9675 0.4168 0.0428
1.9725 0.4088 0.0433
1.9775 0.3143 0.0378
1.9825 0.3092 0.0377
1.9875 0.3340 0.0375
1.9925 0.3390 0.0384
1.9975 0.3651 0.0406
2.0025 0.2811 0.0357
2.0075 0.3369 0.0391
2.0125 0.4096 0.0431
2.0175 0.2946 0.0355
2.0225 0.3396 0.0387
2.0275 0.2757 0.0350
2.0325 0.3040 0.0374
2.0375 0.3470 0.0395
2.0425 0.2046 0.0305
2.0475 0.2642 0.0338
2.0525 0.2471 0.0327
2.0575 0.2223 0.0317
2.0625 0.2205 0.0315
2.0675 0.2973 0.0367
2.0725 0.2084 0.0311
2.0775 0.2422 0.0327
2.0825 0.2222 0.0308
2.0875 0.1995 0.0298
2.0925 0.1889 0.0292
2.0975 0.2154 0.0314
2.1025 0.1597 0.0270
2.1075 0.2353 0.0326
2.1125 0.1780 0.0275
2.1175 0.2199 0.0311
2.1225 0.2092 0.0308
2.1275 0.1770 0.0284
2.1325 0.2403 0.0334
2.1375 0.1521 0.0265
2.1425 0.1791 0.0273
2.1475 0.1797 0.0281
2.1525 0.1665 0.0274
2.1575 0.1383 0.0252
2.1625 0.1249 0.0240
2.1675 0.1453 0.0257
2.1725 0.1435 0.0246
2.1775 0.1327 0.0242
2.1825 0.1441 0.0255
2.1875 0.1141 0.0228
2.1925 0.1284 0.0243
2.1975 0.1187 0.0233
2.2025 0.0897 0.0196
2.2075 0.0310 0.0117
2.2125 0.0534 0.0154
2.2175 0.0457 0.0144
2.2225 0.0273 0.0112
2.2275 0.0184 0.0092
2.2325 0.0219 0.0098
2.2375 0.0217 0.0097
2.2425 0.0045 0.0045
2.2475 0.0181 0.0090
2.2525 0.0272 0.0111
2.2575 0.0091 0.0065
2.2625 0.0046 0.0046
2.2675 0.0084 0.0059
2.2725 0.0000 1.0000
2.2775 0.0000 1.0000
2.2825 0.0092 0.0065
2.2875 0.0046 0.0046
2.2925 0.0324 0.0123
2.2975 0.0293 0.0111
2.3025 0.0044 0.0044
2.3075 0.0133 0.0077
2.3125 0.0091 0.0064
2.3175 0.0046 0.0046
2.3225 0.0000 1.0000
2.3275 0.0128 0.0074
2.3325 0.0000 1.0000
2.3375 0.0000 1.0000
2.3425 0.0090 0.0064
2.3475 0.0047 0.0046
2.3525 0.0045 0.0046
2.3575 0.0259 0.0106
2.3625 0.0000 1.0000
2.3675 0.0092 0.0065
2.3725 0.0045 0.0045
2.3775 0.0046 0.0046
2.3825 0.0046 0.0046
2.3875 0.0135 0.0078
2.3925 0.0085 0.0060
2.3975 0.0000 1.0000
2.4025 0.0000 1.0000
2.4075 0.0045 0.0045
2.4125 0.0046 0.0046
2.4175 0.0000 1.0000
2.4225 0.0042 0.0042
2.4275 0.0089 0.0063
2.4325 0.0227 0.0101
2.4375 0.0180 0.0090
2.4425 0.0185 0.0093
2.4475 0.0231 0.0103
2.4525 0.0249 0.0102
2.4575 0.0354 0.0125
2.4625 0.0224 0.0100
2.4675 0.0138 0.0080
2.4725 0.0046 0.0046
2.4775 0.0092 0.0065
2.4825 0.0125 0.0072
2.4875 0.0000 1.0000
2.4925 0.0090 0.0064
2.4975 0.0091 0.0065
2.5025 0.0092 0.0065
2.5075 0.0000 1.0000
2.5125 0.0000 1.0000
2.5175 0.0044 0.0044
2.5225 0.0180 0.0090
2.5275 0.0000 1.0000
2.5325 0.0047 0.0047
2.5375 0.0137 0.0079
2.5425 0.0205 0.0092
2.5475 0.0044 0.0044
2.5525 0.0089 0.0063
2.5575 0.0046 0.0046
2.5625 0.0000 1.0000
2.5675 0.0184 0.0092
2.5725 0.0000 1.0000
2.5775 0.0044 0.0044
2.5825 0.0000 1.0000
2.5875 0.0045 0.0045
2.5925 0.0000 1.0000
2.5975 0.0000 1.0000
2.6025 0.0000 1.0000
2.6075 0.0045 0.0045
2.6125 0.0135 0.0078
2.6175 0.0363 0.0128
2.6225 0.0046 0.0046
2.6275 0.0044 0.0044
2.6325 0.0042 0.0042
2.6375 0.0133 0.0077
2.6425 0.0091 0.0064
2.6475 0.0045 0.0045
2.6525 0.0046 0.0046
2.6575 0.0128 0.0074
2.6625 0.0043 0.0043
2.6675 0.0045 0.0045
2.6725 0.0044 0.0045
2.6775 0.0091 0.0065
2.6825 0.0091 0.0064
2.6875 0.0041 0.0041
2.6925 0.0000 1.0000
2.6975 0.0000 1.0000
0.0000 0.0000 1.0000
0.0000 0.0000 1.0000
0.0000 0.0000 1.0000
0.0000 0.0000 1.0000
0.0000 0.0000 1.0000
0.0000 0.0000 1.0000
0.0000 0.0000 1.0000
0.0000 0.0000 1.0000
0.0000 0.0000 1.0000
0.0000 0.0000 1.0000
0.0000 0.0000 1.0000
0.0000 0.0000 1.0000
0.0000 0.0000 1.0000
0.0000 0.0000 1.0000
