1.0725 0.4950 0.1207
1.0775 0.8342 0.1108
1.0825 0.5650 0.0730
1.0875 0.5962 0.0708
1.0925 0.6205 0.0686
1.0975 0.5663 0.0634
1.1025 0.5662 0.0561
1.1075 0.6221 0.0601
1.1125 0.5377 0.0541
1.1175 0.6234 0.0556
1.1225 0.6089 0.0526
1.1275 0.6557 0.0548
1.1325 0.6768 0.0551
1.1375 0.7151 0.0544
1.1425 0.6656 0.0528
1.1475 0.6738 0.0541
1.1525 0.7115 0.0557
1.1575 0.6420 0.0508
1.1625 0.8428 0.0598
1.1675 0.8157 0.0592
1.1725 0.8723 0.0609
1.1775 0.9005 0.0601
1.1825 0.9578 0.0644
1.1875 0.9154 0.0625
1.1925 0.8971 0.0610
1.1975 0.9017 0.0608
1.2025 0.9118 0.0619
1.2075 0.8617 0.0611
1.2125 0.8572 0.0591
1.2175 0.9315 0.0614
1.2225 0.9279 0.0631
1.2275 0.9548 0.0629
1.2325 0.9554 0.0628
1.2375 0.9924 0.0638
1.2425 0.8270 0.0583
1.2475 1.0565 0.0675
1.2525 1.1450 0.0682
1.2575 0.9756 0.0626
1.2625 1.0371 0.0660
1.2675 0.9787 0.0648
1.2725 0.9309 0.0615
1.2775 0.9049 0.0610
1.2825 1.0591 0.0671
1.2875 0.9587 0.0636
1.2925 1.0441 0.0667
1.2975 1.2144 0.0693
1.3025 1.3096 0.0742
1.3075 1.3849 0.0763
1.3125 1.7284 0.0861
1.3175 2.2554 0.0944
1.3225 2.7854 0.1080
1.3275 3.0651 0.1142
1.3325 3.7605 0.1270
1.3375 3.7134 0.1221
1.3425 3.1241 0.1148
1.3475 2.4556 0.1009
1.3525 1.8859 0.0906
1.3575 1.5958 0.0810
1.3625 1.3188 0.0738
1.3675 1.2710 0.0732
1.3725 1.3461 0.0754
1.3775 1.4375 0.0789
1.3825 1.5344 0.0788
1.3875 1.6579 0.0836
1.3925 1.6085 0.0824
1.3975 1.5886 0.0831
1.4025 1.5754 0.0810
1.4075 1.5496 0.0804
1.4125 1.6649 0.0836
1.4175 1.5197 0.0815
1.4225 1.9611 0.0923
1.4275 2.8676 0.1082
1.4325 5.1971 0.1475
1.4375 8.8813 0.1944
1.4425 9.3485 0.2020
1.4475 5.0529 0.1454
1.4525 2.6069 0.1044
1.4575 1.9232 0.0903
1.4625 1.7366 0.0867
1.4675 1.7252 0.0868
1.4725 1.7674 0.0856
1.4775 1.5151 0.0800
1.4825 1.5304 0.0809
1.4875 1.5212 0.0808
1.4925 1.5030 0.0814
1.4975 1.5572 0.0804
1.5025 1.4877 0.0791
1.5075 1.5110 0.0812
1.5125 1.3598 0.0767
1.5175 1.6460 0.0853
1.5225 1.5775 0.0798
1.5275 1.5301 0.0805
1.5325 1.4423 0.0799
1.5375 1.3835 0.0784
1.5425 1.5565 0.0830
1.5475 1.4723 0.0766
1.5525 1.4312 0.0787
1.5575 1.7257 0.0868
1.5625 2.2031 0.0977
1.5675 2.4450 0.1045
1.5725 2.7411 0.1060
1.5775 2.4302 0.1023
1.5825 2.0197 0.0937
1.5875 1.8294 0.0894
1.5925 1.5561 0.0835
1.5975 1.5743 0.0802
1.6025 1.5187 0.0804
1.6075 1.4776 0.0809
1.6125 1.6045 0.0844
1.6175 1.3548 0.0779
1.6225 1.3373 0.0742
1.6275 1.3123 0.0754
1.6325 1.2504 0.0734
1.6375 1.2824 0.0758
1.6425 1.1868 0.0726
1.6475 1.1421 0.0690
1.6525 1.1779 0.0711
1.6575 1.2680 0.0741
1.6625 1.1167 0.0708
1.6675 0.9430 0.0647
1.6725 0.9916 0.0650
1.6775 1.1843 0.0711
1.6825 1.2145 0.0728
1.6875 1.2655 0.0753
1.6925 1.4918 0.0812
1.6975 1.7230 0.0879
1.7025 2.1331 0.0939
1.7075 2.8890 0.1116
1.7125 3.3549 0.1221
1.7175 3.1717 0.1179
1.7225 2.9823 0.1162
1.7275 2.1278 0.0948
1.7325 1.7179 0.0862
1.7375 1.3923 0.0783
1.7425 1.2917 0.0761
1.7475 1.2148 0.0736
1.7525 1.0817 0.0703
1.7575 0.9718 0.0631
1.7625 0.8746 0.0615
1.7675 0.9514 0.0650
1.7725 0.9948 0.0668
1.7775 0.9269 0.0651
1.7825 0.9190 0.0627
1.7875 0.7388 0.0563
1.7925 0.7339 0.0566
1.7975 0.8290 0.0607
1.8025 0.6599 0.0546
1.8075 0.8602 0.0627
1.8125 0.6917 0.0535
1.8175 0.6955 0.0554
1.8225 0.6874 0.0550
1.8275 0.6526 0.0542
1.8325 0.6738 0.0552
1.8375 0.6338 0.0538
1.8425 0.6254 0.0507
1.8475 0.6333 0.0529
1.8525 0.6157 0.0524
1.8575 0.5879 0.0513
1.8625 0.5776 0.0512
1.8675 0.5221 0.0476
1.8725 0.6588 0.0534
1.8775 0.5159 0.0477
1.8825 0.5025 0.0473
1.8875 0.4441 0.0448
1.8925 0.5712 0.0511
1.8975 0.5644 0.0491
1.9025 0.5944 0.0509
1.9075 0.5273 0.0483
1.9125 0.5877 0.0513
1.9175 0.5166 0.0481
1.9225 0.5621 0.0507
1.9275 0.4593 0.0446
1.9325 0.4876 0.0456
1.9375 0.5077 0.0479
1.9425 0.5434 0.0494
1.9475 0.4780 0.0468
1.9525 0.4436 0.0450
1.9575 0.4311 0.0425
1.9625 0.4343 0.0438
1.9675 0.4432 0.0441
1.9725 0.4542 0.0456
1.9775 0.4186 0.0436
1.9825 0.3368 0.0394
1.9875 0.3040 0.0358
1.9925 0.3002 0.0361
1.9975 0.4013 0.0425
2.0025 0.3716 0.0410
2.0075 0.3230 0.0383
2.0125 0.4137 0.0434
2.0175 0.4534 0.0440
2.0225 0.4143 0.0427
2.0275 0.4177 0.0431
2.0325 0.3085 0.0377
2.0375 0.3745 0.0411
2.0425 0.3503 0.0399
2.0475 0.3855 0.0408
2.0525 0.3075 0.0365
2.0575 0.3677 0.0408
2.0625 0.2793 0.0355
2.0675 0.3066 0.0372
2.0725 0.2586 0.0347
2.0775 0.2464 0.0329
2.0825 0.2394 0.0320
2.0875 0.2621 0.0341
2.0925 0.2295 0.0322
2.0975 0.2065 0.0308
2.1025 0.2146 0.0313
2.1075 0.1627 0.0271
2.1125 0.2120 0.0300
2.1175 0.1588 0.0264
2.1225 0.2271 0.0321
2.1275 0.1501 0.0261
2.1325 0.2225 0.0321
2.1375 0.1150 0.0230
2.1425 0.1624 0.0260
2.1475 0.2017 0.0297
2.1525 0.1619 0.0270
2.1575 0.1706 0.0280
2.1625 0.1621 0.0274
2.1675 0.1500 0.0261
2.1725 0.1098 0.0215
2.1775 0.1062 0.0217
2.1825 0.1306 0.0243
2.1875 0.1553 0.0266
2.1925 0.1146 0.0229
2.1975 0.0822 0.0194
2.2025 0.0599 0.0160
2.2075 0.0840 0.0193
2.2125 0.0579 0.0160
2.2175 0.0547 0.0158
2.2225 0.0410 0.0137
2.2275 0.0507 0.0153
2.2325 0.0397 0.0132
2.2375 0.0348 0.0123
2.2425 0.0492 0.0149
2.2475 0.0360 0.0127
2.2525 0.0318 0.0120
2.2575 0.0277 0.0113
2.2625 0.0000 1.0000
2.2675 0.0042 0.0042
2.2725 0.0089 0.0063
2.2775 0.0000 1.0000
2.2825 0.0092 0.0065
2.2875 0.0093 0.0065
2.2925 0.0094 0.0066
2.2975 0.0083 0.0059
2.3025 0.0045 0.0044
2.3075 0.0044 0.0044
2.3125 0.0091 0.0064
2.3175 0.0046 0.0046
2.3225 0.0047 0.0046
2.3275 0.0086 0.0061
2.3325 0.0177 0.0088
2.3375 0.0396 0.0132
2.3425 0.0180 0.0091
2.3475 0.0275 0.0113
2.3525 0.0138 0.0080
2.3575 0.0088 0.0062
2.3625 0.0084 0.0060
2.3675 0.0138 0.0079
2.3725 0.0090 0.0064
2.3775 0.0000 1.0000
2.3825 0.0000 1.0000
2.3875 0.0045 0.0045
2.3925 0.0000 1.0000
2.3975 0.0089 0.0063
2.4025 0.0091 0.0064
2.4075 0.0045 0.0045
2.4125 0.0093 0.0065
2.4175 0.0000 1.0000
2.4225 0.0000 1.0000
2.4275 0.0000 1.0000
2.4325 0.0045 0.0045
2.4375 0.0091 0.0064
2.4425 0.0092 0.0065
2.4475 0.0000 1.0000
2.4525 0.0373 0.0124
2.4575 0.0089 0.0063
2.4625 0.0000 1.0000
2.4675 0.0046 0.0046
2.4725 0.0092 0.0065
2.4775 0.0000 1.0000
2.4825 0.0084 0.0059
2.4875 0.0132 0.0076
2.4925 0.0134 0.0078
2.4975 0.0137 0.0079
2.5025 0.0091 0.0065
2.5075 0.0000 1.0000
2.5125 0.0042 0.0042
2.5175 0.0044 0.0044
2.5225 0.0000 1.0000
2.5275 0.0089 0.0063
2.5325 0.0186 0.0093
2.5375 0.0137 0.0079
2.5425 0.0165 0.0082
2.5475 0.0133 0.0077
2.5525 0.0178 0.0089
2.5575 0.0137 0.0079
2.5625 0.0318 0.0121
2.5675 0.0228 0.0103
2.5725 0.0124 0.0072
2.5775 0.0132 0.0076
2.5825 0.0000 1.0000
2.5875 0.0045 0.0046
2.5925 0.0045 0.0045
2.5975 0.0046 0.0047
2.6025 0.0123 0.0071
2.6075 0.0000 1.0000
2.6125 0.0000 1.0000
2.6175 0.0090 0.0064
2.6225 0.0046 0.0046
2.6275 0.0044 0.0044
2.6325 0.0043 0.0043
2.6375 0.0000 1.0000
2.6425 0.0000 1.0000
2.6475 0.0090 0.0063
2.6525 0.0185 0.0092
2.6575 0.0169 0.0085
2.6625 0.0086 0.0061
2.6675 0.0090 0.0063
2.6725 0.0000 1.0000
2.6775 0.0000 1.0000
2.6825 0.0091 0.0065
2.6875 0.0082 0.0058
2.6925 0.0088 0.0062
2.6975 0.0134 0.0077
0.0000 0.0000 1.0000
0.0000 0.0000 1.0000
0.0000 0.0000 1.0000
0.0000 0.0000 1.0000
0.0000 0.0000 1.0000
0.0000 0.0000 1.0000
0.0000 0.0000 1.0000
0.0000 0.0000 1.0000
0.0000 0.0000 1.0000
0.0000 0.0000 1.0000
0.0000 0.0000 1.0000
0.0000 0.0000 1.0000
0.0000 0.0000 1.0000
0.0000 0.0000 1.0000
