1.0725 1.0187 0.1731
1.0775 0.6580 0.0984
1.0825 0.7342 0.0832
1.0875 0.7803 0.0810
1.0925 0.8622 0.0808
1.0975 0.8925 0.0796
1.1025 0.8481 0.0686
1.1075 0.8542 0.0705
1.1125 0.8803 0.0692
1.1175 0.9150 0.0673
1.1225 0.8674 0.0628
1.1275 0.8202 0.0613
1.1325 0.8746 0.0626
1.1375 0.8551 0.0594
1.1425 1.0508 0.0663
1.1475 0.8693 0.0615
1.1525 0.9031 0.0628
1.1575 0.9960 0.0632
1.1625 0.9190 0.0624
1.1675 0.9963 0.0654
1.1725 0.8898 0.0615
1.1775 1.0445 0.0648
1.1825 1.0488 0.0674
1.1875 1.0522 0.0671
1.1925 0.9374 0.0624
1.1975 1.0529 0.0657
1.2025 1.0715 0.0671
1.2075 0.9879 0.0654
1.2125 1.1228 0.0677
1.2175 1.1702 0.0688
1.2225 1.0520 0.0672
1.2275 1.1743 0.0698
1.2325 1.1488 0.0689
1.2375 1.0576 0.0658
1.2425 1.2838 0.0727
1.2475 1.1287 0.0697
1.2525 1.1372 0.0680
1.2575 1.2800 0.0717
1.2625 1.2346 0.0720
1.2675 1.2953 0.0746
1.2725 1.3088 0.0729
1.2775 1.2013 0.0703
1.2825 1.2513 0.0730
1.2875 1.2549 0.0728
1.2925 1.3336 0.0753
1.2975 1.2667 0.0708
1.3025 1.3772 0.0761
1.3075 1.4016 0.0767
1.3125 1.3330 0.0756
1.3175 1.3447 0.0729
1.3225 1.4050 0.0767
1.3275 1.5770 0.0819
1.3325 1.3906 0.0773
1.3375 1.4090 0.0752
1.3425 1.2932 0.0739
1.3475 1.3523 0.0749
1.3525 1.5342 0.0817
1.3575 1.4726 0.0778
1.3625 1.5249 0.0794
1.3675 1.5492 0.0808
1.3725 1.5324 0.0804
1.3775 1.4036 0.0780
1.3825 1.5592 0.0795
1.3875 1.5610 0.0812
1.3925 1.5786 0.0816
1.3975 1.5756 0.0828
1.4025 1.5169 0.0795
1.4075 1.4875 0.0787
1.4125 1.6393 0.0830
1.4175 1.5689 0.0828
1.4225 1.6490 0.0847
1.4275 1.6413 0.0818
1.4325 1.5820 0.0814
1.4375 1.8043 0.0876
1.4425 1.6195 0.0841
1.4475 1.6692 0.0836
1.4525 1.6411 0.0829
1.4575 1.7584 0.0863
1.4625 1.5942 0.0831
1.4675 1.5892 0.0833
1.4725 1.7508 0.0852
1.4775 1.6296 0.0829
1.4825 1.7012 0.0853
1.4875 1.6965 0.0853
1.4925 1.5121 0.0816
1.4975 1.6241 0.0821
1.5025 1.5674 0.0812
1.5075 1.6248 0.0842
1.5125 1.5586 0.0821
1.5175 1.7342 0.0876
1.5225 1.6095 0.0806
1.5275 1.4870 0.0794
1.5325 1.5530 0.0829
1.5375 1.6100 0.0846
1.5425 1.3664 0.0778
1.5475 1.5248 0.0779
1.5525 1.5871 0.0829
1.5575 1.5636 0.0826
1.5625 1.4980 0.0805
1.5675 1.4143 0.0795
1.5725 1.4264 0.0765
1.5775 1.5122 0.0807
1.5825 1.4909 0.0805
1.5875 1.4359 0.0792
1.5925 1.3663 0.0783
1.5975 1.4489 0.0769
1.6025 1.3312 0.0753
1.6075 1.2301 0.0738
1.6125 1.3201 0.0766
1.6175 1.3275 0.0772
1.6225 1.3503 0.0745
1.6275 1.2467 0.0735
1.6325 1.2929 0.0747
1.6375 1.2203 0.0740
1.6425 1.3074 0.0762
1.6475 1.3086 0.0738
1.6525 1.2924 0.0745
1.6575 1.3341 0.0760
1.6625 1.2646 0.0753
1.6675 1.2633 0.0749
1.6725 1.1834 0.0710
1.6775 1.1288 0.0695
1.6825 1.2760 0.0746
1.6875 1.2516 0.0749
1.6925 1.0054 0.0667
1.6975 1.0630 0.0690
1.7025 1.0047 0.0644
1.7075 1.0653 0.0678
1.7125 0.9600 0.0653
1.7175 0.9699 0.0652
1.7225 1.0047 0.0674
1.7275 1.0094 0.0653
1.7325 0.9178 0.0630
1.7375 0.8681 0.0618
1.7425 0.9866 0.0665
1.7475 0.8353 0.0611
1.7525 0.7626 0.0590
1.7575 0.8691 0.0597
1.7625 0.8579 0.0609
1.7675 0.8888 0.0628
1.7725 0.8970 0.0634
1.7775 0.7305 0.0578
1.7825 0.7952 0.0583
1.7875 0.8289 0.0596
1.7925 0.7776 0.0583
1.7975 0.7134 0.0563
1.8025 0.6784 0.0554
1.8075 0.6331 0.0538
1.8125 0.6999 0.0538
1.8175 0.6474 0.0534
1.8225 0.5516 0.0493
1.8275 0.6431 0.0538
1.8325 0.6931 0.0560
1.8375 0.6299 0.0536
1.8425 0.5925 0.0494
1.8475 0.5310 0.0485
1.8525 0.5579 0.0499
1.8575 0.5696 0.0505
1.8625 0.6868 0.0559
1.8675 0.5136 0.0473
1.8725 0.5806 0.0501
1.8775 0.4718 0.0456
1.8825 0.5297 0.0485
1.8875 0.4435 0.0448
1.8925 0.4807 0.0468
1.8975 0.4059 0.0416
1.9025 0.4858 0.0461
1.9075 0.3677 0.0403
1.9125 0.3770 0.0411
1.9175 0.4400 0.0444
1.9225 0.4615 0.0459
1.9275 0.4984 0.0464
1.9325 0.4107 0.0419
1.9375 0.4032 0.0427
1.9425 0.3549 0.0399
1.9475 0.3992 0.0428
1.9525 0.3428 0.0396
1.9575 0.3433 0.0379
1.9625 0.3275 0.0381
1.9675 0.3291 0.0380
1.9725 0.2894 0.0364
1.9775 0.3368 0.0391
1.9825 0.3416 0.0397
1.9875 0.2662 0.0335
1.9925 0.3003 0.0361
1.9975 0.2432 0.0331
2.0025 0.3127 0.0376
2.0075 0.3185 0.0380
2.0125 0.2683 0.0349
2.0175 0.3593 0.0392
2.0225 0.2378 0.0324
2.0275 0.2624 0.0341
2.0325 0.2855 0.0363
2.0375 0.2884 0.0360
2.0425 0.2593 0.0343
2.0475 0.3204 0.0372
2.0525 0.2208 0.0309
2.0575 0.1860 0.0290
2.0625 0.2385 0.0328
2.0675 0.2208 0.0316
2.0725 0.1483 0.0263
2.0775 0.1499 0.0257
2.0825 0.2052 0.0296
2.0875 0.1683 0.0273
2.0925 0.2160 0.0312
2.0975 0.1329 0.0247
2.1025 0.2010 0.0303
2.1075 0.1403 0.0252
2.1125 0.1823 0.0278
2.1175 0.2023 0.0299
2.1225 0.1638 0.0273
2.1275 0.1409 0.0253
2.1325 0.1712 0.0282
2.1375 0.1520 0.0265
2.1425 0.1663 0.0263
2.1475 0.1622 0.0267
2.1525 0.2027 0.0302
2.1575 0.1473 0.0261
2.1625 0.1389 0.0254
2.1675 0.1452 0.0257
2.1725 0.1267 0.0231
2.1775 0.1414 0.0250
2.1825 0.1440 0.0255
2.1875 0.1554 0.0266
2.1925 0.1101 0.0225
2.1975 0.1141 0.0228
2.2025 0.0684 0.0171
2.2075 0.0708 0.0177
2.2125 0.0579 0.0160
2.2175 0.0365 0.0129
2.2225 0.0640 0.0171
2.2275 0.0277 0.0113
2.2325 0.0218 0.0098
2.2375 0.0305 0.0115
2.2425 0.0270 0.0110
2.2475 0.0135 0.0078
2.2525 0.0137 0.0079
2.2575 0.0046 0.0046
2.2625 0.0092 0.0065
2.2675 0.0000 1.0000
2.2725 0.0132 0.0076
2.2775 0.0089 0.0063
2.2825 0.0092 0.0065
2.2875 0.0046 0.0046
2.2925 0.0000 1.0000
2.2975 0.0084 0.0059
2.3025 0.0222 0.0099
2.3075 0.0045 0.0045
2.3125 0.0091 0.0064
2.3175 0.0278 0.0114
2.3225 0.0278 0.0113
2.3275 0.0043 0.0043
2.3325 0.0044 0.0044
2.3375 0.0044 0.0044
2.3425 0.0000 1.0000
2.3475 0.0000 1.0000
2.3525 0.0000 1.0000
2.3575 0.0000 1.0000
2.3625 0.0043 0.0043
2.3675 0.0092 0.0065
2.3725 0.0045 0.0045
2.3775 0.0046 0.0046
2.3825 0.0046 0.0046
2.3875 0.0135 0.0078
2.3925 0.0126 0.0073
2.3975 0.0134 0.0077
2.4025 0.0045 0.0045
2.4075 0.0045 0.0045
2.4125 0.0046 0.0046
2.4175 0.0092 0.0065
2.4225 0.0000 1.0000
2.4275 0.0000 1.0000
2.4325 0.0000 1.0000
2.4375 0.0090 0.0064
2.4425 0.0000 1.0000
2.4475 0.0229 0.0103
2.4525 0.0331 0.0117
2.4575 0.0133 0.0077
2.4625 0.0089 0.0063
2.4675 0.0000 1.0000
2.4725 0.0182 0.0091
2.4775 0.0092 0.0065
2.4825 0.0000 1.0000
2.4875 0.0000 1.0000
2.4925 0.0045 0.0045
2.4975 0.0000 1.0000
2.5025 0.0000 1.0000
2.5075 0.0000 1.0000
2.5125 0.0000 1.0000
2.5175 0.0044 0.0044
2.5225 0.0000 1.0000
2.5275 0.0045 0.0045
2.5325 0.0000 1.0000
2.5375 0.0000 1.0000
2.5425 0.0123 0.0071
2.5475 0.0177 0.0089
2.5525 0.0089 0.0063
2.5575 0.0046 0.0046
2.5625 0.0046 0.0046
2.5675 0.0138 0.0080
2.5725 0.0000 1.0000
2.5775 0.0044 0.0044
2.5825 0.0045 0.0045
2.5875 0.0045 0.0045
2.5925 0.0000 1.0000
2.5975 0.0000 1.0000
2.6025 0.0081 0.0058
2.6075 0.0177 0.0089
2.6125 0.0044 0.0045
2.6175 0.0000 1.0000
2.6225 0.0000 1.0000
2.6275 0.0000 1.0000
2.6325 0.0042 0.0042
2.6375 0.0000 1.0000
2.6425 0.0000 1.0000
2.6475 0.0000 1.0000
2.6525 0.0138 0.0080
2.6575 0.0128 0.0074
2.6625 0.0129 0.0074
2.6675 0.0224 0.0100
2.6725 0.0225 0.0101
2.6775 0.0092 0.0065
2.6825 0.0000 1.0000
2.6875 0.0041 0.0041
2.6925 0.0088 0.0062
2.6975 0.0177 0.0088
0.0000 0.0000 1.0000
0.0000 0.0000 1.0000
0.0000 0.0000 1.0000
0.0000 0.0000 1.0000
0.0000 0.0000 1.0000
0.0000 0.0000 1.0000
0.0000 0.0000 1.0000
0.0000 0.0000 1.0000
0.0000 0.0000 1.0000
0.0000 0.0000 1.0000
0.0000 0.0000 1.0000
0.0000 0.0000 1.0000
0.0000 0.0000 1.0000
0.0000 0.0000 1.0000
