1.0725 0.4080 0.1095
1.0775 0.7313 0.1037
1.0825 0.7810 0.0858
1.0875 0.8132 0.0827
1.0925 0.7795 0.0768
1.0975 0.7228 0.0716
1.1025 0.8327 0.0680
1.1075 0.8775 0.0714
1.1125 0.8965 0.0698
1.1175 0.8460 0.0647
1.1225 0.8809 0.0633
1.1275 0.9763 0.0669
1.1325 0.9187 0.0642
1.1375 1.0332 0.0653
1.1425 0.8538 0.0598
1.1475 0.9428 0.0640
1.1525 0.8903 0.0624
1.1575 0.8829 0.0595
1.1625 0.9916 0.0648
1.1675 1.0050 0.0657
1.1725 0.8847 0.0614
1.1775 0.9889 0.0630
1.1825 1.0227 0.0665
1.1875 1.0479 0.0669
1.1925 0.9423 0.0625
1.1975 0.9916 0.0637
1.2025 1.1514 0.0696
1.2075 1.0692 0.0680
1.2125 1.0900 0.0667
1.2175 1.1617 0.0686
1.2225 1.1209 0.0694
1.2275 1.2002 0.0706
1.2325 1.1446 0.0688
1.2375 1.1810 0.0696
1.2425 1.1358 0.0684
1.2475 1.2978 0.0748
1.2525 1.2226 0.0705
1.2575 1.2204 0.0700
1.2625 1.2596 0.0728
1.2675 1.1586 0.0705
1.2725 1.1947 0.0697
1.2775 1.2920 0.0729
1.2825 1.3280 0.0752
1.2875 1.4324 0.0777
1.2925 1.3124 0.0747
1.2975 1.3566 0.0732
1.3025 1.2636 0.0729
1.3075 1.3175 0.0744
1.3125 1.2527 0.0733
1.3175 1.2931 0.0715
1.3225 1.4095 0.0768
1.3275 1.2577 0.0732
1.3325 1.4471 0.0788
1.3375 1.4695 0.0768
1.3425 1.4590 0.0785
1.3475 1.4685 0.0781
1.3525 1.4461 0.0793
1.3575 1.2216 0.0709
1.3625 1.5248 0.0794
1.3675 1.4482 0.0782
1.3725 1.6087 0.0824
1.3775 1.5336 0.0815
1.3825 1.5468 0.0791
1.3875 1.6535 0.0835
1.3925 1.6131 0.0825
1.3975 1.6970 0.0859
1.4025 1.4581 0.0779
1.4075 1.6499 0.0829
1.4125 1.5806 0.0815
1.4175 1.6030 0.0837
1.4225 1.6400 0.0844
1.4275 1.5847 0.0804
1.4325 1.7123 0.0846
1.4375 1.5924 0.0823
1.4425 1.6462 0.0848
1.4475 1.5809 0.0813
1.4525 1.6994 0.0843
1.4575 1.7199 0.0854
1.4625 1.8152 0.0886
1.4675 1.6076 0.0838
1.4725 1.6558 0.0829
1.4775 1.7855 0.0868
1.4825 1.7055 0.0854
1.4875 1.6414 0.0839
1.4925 1.7230 0.0871
1.4975 1.7278 0.0847
1.5025 1.5636 0.0811
1.5075 1.6634 0.0852
1.5125 1.6799 0.0853
1.5175 1.8226 0.0898
1.5225 1.6097 0.0806
1.5275 1.6112 0.0826
1.5325 1.5038 0.0816
1.5375 1.5386 0.0827
1.5425 1.4994 0.0815
1.5475 1.5845 0.0795
1.5525 1.4620 0.0796
1.5575 1.4731 0.0802
1.5625 1.5455 0.0818
1.5675 1.4676 0.0809
1.5725 1.4915 0.0782
1.5775 1.4566 0.0792
1.5825 1.4375 0.0791
1.5875 1.5716 0.0828
1.5925 1.5875 0.0844
1.5975 1.6235 0.0814
1.6025 1.3987 0.0771
1.6075 1.3989 0.0787
1.6125 1.5240 0.0823
1.6175 1.2467 0.0748
1.6225 1.4320 0.0768
1.6275 1.3599 0.0767
1.6325 1.3405 0.0760
1.6375 1.3944 0.0791
1.6425 1.3470 0.0774
1.6475 1.3464 0.0749
1.6525 1.0955 0.0686
1.6575 1.2779 0.0744
1.6625 1.2874 0.0760
1.6675 1.1472 0.0714
1.6725 1.1711 0.0706
1.6775 1.2875 0.0742
1.6825 1.1230 0.0700
1.6875 1.0861 0.0698
1.6925 1.2483 0.0743
1.6975 1.2075 0.0736
1.7025 0.9964 0.0642
1.7075 1.0396 0.0669
1.7125 0.9422 0.0647
1.7175 1.0044 0.0664
1.7225 0.9824 0.0667
1.7275 1.0767 0.0674
1.7325 1.0648 0.0679
1.7375 0.9827 0.0658
1.7425 1.0185 0.0676
1.7475 0.9025 0.0635
1.7525 0.8997 0.0641
1.7575 0.8325 0.0584
1.7625 0.9088 0.0627
1.7675 0.9069 0.0635
1.7725 0.8882 0.0631
1.7775 0.7629 0.0590
1.7825 0.7137 0.0552
1.7875 0.7861 0.0581
1.7925 0.7338 0.0566
1.7975 0.8470 0.0614
1.8025 0.5693 0.0508
1.8075 0.6282 0.0536
1.8125 0.6997 0.0538
1.8175 0.6477 0.0534
1.8225 0.6039 0.0516
1.8275 0.6617 0.0546
1.8325 0.5611 0.0504
1.8375 0.5661 0.0508
1.8425 0.6792 0.0529
1.8475 0.6633 0.0542
1.8525 0.5403 0.0491
1.8575 0.4805 0.0464
1.8625 0.5638 0.0506
1.8675 0.6440 0.0529
1.8725 0.5981 0.0509
1.8775 0.5380 0.0487
1.8825 0.4937 0.0468
1.8875 0.5750 0.0510
1.8925 0.4618 0.0459
1.8975 0.5343 0.0478
1.9025 0.5075 0.0471
1.9075 0.4781 0.0460
1.9125 0.4081 0.0428
1.9175 0.4085 0.0428
1.9225 0.4526 0.0455
1.9275 0.4983 0.0464
1.9325 0.4534 0.0440
1.9375 0.3625 0.0405
1.9425 0.3184 0.0378
1.9475 0.3996 0.0428
1.9525 0.4849 0.0471
1.9575 0.3855 0.0402
1.9625 0.3990 0.0420
1.9675 0.3774 0.0407
1.9725 0.3765 0.0416
1.9775 0.4097 0.0432
1.9825 0.3555 0.0405
1.9875 0.3419 0.0380
1.9925 0.3483 0.0389
1.9975 0.3064 0.0372
2.0025 0.3533 0.0400
2.0075 0.2913 0.0364
2.0125 0.3229 0.0383
2.0175 0.3123 0.0365
2.0225 0.3042 0.0366
2.0275 0.2843 0.0355
2.0325 0.3226 0.0386
2.0375 0.3290 0.0385
2.0425 0.2864 0.0361
2.0475 0.3159 0.0370
2.0525 0.2386 0.0321
2.0575 0.2268 0.0320
2.0625 0.2113 0.0308
2.0675 0.1802 0.0286
2.0725 0.1890 0.0296
2.0775 0.2287 0.0317
2.0825 0.1878 0.0283
2.0875 0.2086 0.0305
2.0925 0.1980 0.0299
2.0975 0.1926 0.0297
2.1025 0.1507 0.0262
2.1075 0.2260 0.0320
2.1125 0.1906 0.0284
2.1175 0.2246 0.0315
2.1225 0.1864 0.0291
2.1275 0.1911 0.0295
2.1325 0.1204 0.0236
2.1375 0.1982 0.0302
2.1425 0.1790 0.0273
2.1475 0.1447 0.0252
2.1525 0.1756 0.0281
2.1575 0.1291 0.0244
2.1625 0.1482 0.0262
2.1675 0.1363 0.0249
2.1725 0.2026 0.0292
2.1775 0.1461 0.0254
2.1825 0.1261 0.0238
2.1875 0.1418 0.0254
2.1925 0.1238 0.0238
2.1975 0.0731 0.0183
2.2025 0.0814 0.0186
2.2075 0.0310 0.0117
2.2125 0.0445 0.0141
2.2175 0.1096 0.0224
2.2225 0.0364 0.0129
2.2275 0.0462 0.0146
2.2325 0.0263 0.0107
2.2375 0.0261 0.0107
2.2425 0.0224 0.0100
2.2475 0.0090 0.0064
2.2525 0.0091 0.0064
2.2575 0.0185 0.0092
2.2625 0.0138 0.0080
2.2675 0.0252 0.0103
2.2725 0.0221 0.0099
2.2775 0.0355 0.0126
2.2825 0.0231 0.0103
2.2875 0.0046 0.0046
2.2925 0.0046 0.0046
2.2975 0.0000 1.0000
2.3025 0.0044 0.0044
2.3075 0.0000 1.0000
2.3125 0.0045 0.0045
2.3175 0.0046 0.0046
2.3225 0.0139 0.0080
2.3275 0.0127 0.0074
2.3325 0.0132 0.0076
2.3375 0.0000 1.0000
2.3425 0.0045 0.0045
2.3475 0.0000 1.0000
2.3525 0.0000 1.0000
2.3575 0.0043 0.0043
2.3625 0.0000 1.0000
2.3675 0.0046 0.0046
2.3725 0.0089 0.0063
2.3775 0.0228 0.0102
2.3825 0.0046 0.0046
2.3875 0.0045 0.0045
2.3925 0.0042 0.0042
2.3975 0.0088 0.0063
2.4025 0.0090 0.0064
2.4075 0.0227 0.0102
2.4125 0.0277 0.0113
2.4175 0.0046 0.0046
2.4225 0.0083 0.0059
2.4275 0.0089 0.0063
2.4325 0.0090 0.0064
2.4375 0.0045 0.0045
2.4425 0.0000 1.0000
2.4475 0.0092 0.0065
2.4525 0.0082 0.0058
2.4575 0.0133 0.0077
2.4625 0.0090 0.0063
2.4675 0.0092 0.0065
2.4725 0.0000 1.0000
2.4775 0.0092 0.0065
2.4825 0.0000 1.0000
2.4875 0.0087 0.0062
2.4925 0.0045 0.0045
2.4975 0.0046 0.0046
2.5025 0.0000 1.0000
2.5075 0.0138 0.0080
2.5125 0.0042 0.0042
2.5175 0.0044 0.0044
2.5225 0.0090 0.0064
2.5275 0.0045 0.0045
2.5325 0.0047 0.0047
2.5375 0.0000 1.0000
2.5425 0.0124 0.0071
2.5475 0.0178 0.0089
2.5525 0.0312 0.0118
2.5575 0.0412 0.0137
2.5625 0.0411 0.0137
2.5675 0.0046 0.0046
2.5725 0.0000 1.0000
2.5775 0.0000 1.0000
2.5825 0.0000 1.0000
2.5875 0.0000 1.0000
2.5925 0.0180 0.0090
2.5975 0.0282 0.0115
2.6025 0.0161 0.0081
2.6075 0.0486 0.0147
2.6125 0.0316 0.0119
2.6175 0.0137 0.0079
2.6225 0.0228 0.0102
2.6275 0.0000 1.0000
2.6325 0.0000 1.0000
2.6375 0.0089 0.0063
2.6425 0.0046 0.0045
2.6475 0.0134 0.0078
2.6525 0.0184 0.0092
2.6575 0.0042 0.0042
2.6625 0.0086 0.0061
2.6675 0.0224 0.0100
2.6725 0.0180 0.0090
2.6775 0.0182 0.0091
2.6825 0.0182 0.0091
2.6875 0.0164 0.0082
2.6925 0.0221 0.0099
2.6975 0.0221 0.0099
0.0000 0.0000 1.0000
0.0000 0.0000 1.0000
0.0000 0.0000 1.0000
0.0000 0.0000 1.0000
0.0000 0.0000 1.0000
0.0000 0.0000 1.0000
0.0000 0.0000 1.0000
0.0000 0.0000 1.0000
0.0000 0.0000 1.0000
0.0000 0.0000 1.0000
0.0000 0.0000 1.0000
0.0000 0.0000 1.0000
0.0000 0.0000 1.0000
0.0000 0.0000 1.0000
