1.0725 0.4364 0.1133
1.0775 0.6275 0.0961
1.0825 0.5932 0.0748
1.0875 0.5961 0.0708
1.0925 0.6126 0.0681
1.0975 0.6093 0.0657
1.1025 0.6994 0.0623
1.1075 0.5518 0.0566
1.1125 0.5597 0.0552
1.1175 0.7766 0.0620
1.1225 0.6084 0.0526
1.1275 0.7059 0.0569
1.1325 0.6903 0.0556
1.1375 0.6655 0.0524
1.1425 0.7912 0.0575
1.1475 0.6301 0.0523
1.1525 0.7639 0.0578
1.1575 0.7187 0.0537
1.1625 0.6906 0.0541
1.1675 0.6525 0.0529
1.1725 0.9279 0.0628
1.1775 0.7515 0.0549
1.1825 0.8841 0.0619
1.1875 0.8513 0.0603
1.1925 0.9545 0.0629
1.1975 0.8033 0.0574
1.2025 0.7901 0.0576
1.2075 0.7926 0.0586
1.2125 0.8693 0.0596
1.2175 0.7733 0.0560
1.2225 0.8713 0.0612
1.2275 0.8678 0.0600
1.2325 0.8928 0.0607
1.2375 0.9762 0.0633
1.2425 1.0454 0.0656
1.2475 0.9777 0.0649
1.2525 1.1052 0.0670
1.2575 1.1440 0.0678
1.2625 0.9700 0.0638
1.2675 0.9139 0.0626
1.2725 0.9834 0.0632
1.2775 0.9755 0.0634
1.2825 1.0339 0.0663
1.2875 1.0480 0.0665
1.2925 0.9753 0.0644
1.2975 1.1986 0.0688
1.3025 1.2721 0.0731
1.3075 1.4094 0.0770
1.3125 1.5568 0.0817
1.3175 2.0702 0.0905
1.3225 2.6820 0.1059
1.3275 3.1095 0.1150
1.3325 3.6738 0.1256
1.3375 3.6244 0.1206
1.3425 3.2045 0.1163
1.3475 2.5718 0.1033
1.3525 2.0853 0.0952
1.3575 1.7764 0.0855
1.3625 1.4675 0.0779
1.3675 1.3718 0.0761
1.3725 1.5367 0.0805
1.3775 1.2558 0.0737
1.3825 1.3774 0.0747
1.3875 1.5440 0.0807
1.3925 1.5488 0.0808
1.3975 1.6365 0.0844
1.4025 1.6502 0.0829
1.4075 1.5331 0.0799
1.4125 1.6267 0.0827
1.4175 1.5819 0.0831
1.4225 1.7837 0.0881
1.4275 2.3644 0.0982
1.4325 4.4535 0.1365
1.4375 7.9026 0.1834
1.4425 10.0383 0.2094
1.4475 6.4167 0.1639
1.4525 3.1434 0.1147
1.4575 1.9021 0.0898
1.4625 1.7720 0.0876
1.4675 1.8950 0.0910
1.4725 1.5266 0.0796
1.4775 1.5154 0.0800
1.4825 1.6627 0.0843
1.4875 1.5254 0.0809
1.4925 1.5117 0.0816
1.4975 1.5002 0.0789
1.5025 1.4531 0.0781
1.5075 1.6249 0.0842
1.5125 1.6412 0.0843
1.5175 1.4242 0.0794
1.5225 1.5568 0.0792
1.5275 1.4827 0.0793
1.5325 1.5614 0.0831
1.5375 1.5474 0.0829
1.5425 1.3610 0.0776
1.5475 1.3392 0.0730
1.5525 1.4101 0.0781
1.5575 1.7057 0.0863
1.5625 1.9086 0.0909
1.5675 2.5108 0.1059
1.5725 2.6998 0.1052
1.5775 2.5468 0.1048
1.5825 2.1764 0.0973
1.5875 1.7723 0.0880
1.5925 1.7399 0.0883
1.5975 1.5345 0.0791
1.6025 1.5783 0.0820
1.6075 1.4071 0.0789
1.6125 1.5648 0.0834
1.6175 1.2787 0.0757
1.6225 1.3337 0.0741
1.6275 1.3636 0.0768
1.6325 1.2714 0.0740
1.6375 1.1707 0.0725
1.6425 1.2134 0.0734
1.6475 1.2672 0.0727
1.6525 1.1689 0.0708
1.6575 1.1480 0.0705
1.6625 1.1843 0.0729
1.6675 1.1250 0.0707
1.6725 1.1366 0.0695
1.6775 1.1754 0.0709
1.6825 1.2498 0.0739
1.6875 1.4402 0.0804
1.6925 1.4250 0.0794
1.6975 1.4589 0.0809
1.7025 1.8064 0.0864
1.7075 2.1861 0.0971
1.7125 3.1287 0.1179
1.7175 3.5795 0.1253
1.7225 3.4663 0.1252
1.7275 2.7986 0.1087
1.7325 1.9475 0.0918
1.7375 1.4979 0.0812
1.7425 1.3595 0.0781
1.7475 1.2593 0.0750
1.7525 1.0773 0.0701
1.7575 0.8858 0.0603
1.7625 1.0519 0.0675
1.7675 0.9294 0.0643
1.7725 0.8478 0.0617
1.7775 0.8541 0.0624
1.7825 0.7907 0.0581
1.7875 0.8977 0.0621
1.7925 0.8480 0.0609
1.7975 0.7393 0.0573
1.8025 0.6820 0.0556
1.8075 0.7565 0.0588
1.8125 0.7530 0.0558
1.8175 0.7095 0.0559
1.8225 0.7666 0.0581
1.8275 0.5898 0.0515
1.8325 0.7323 0.0576
1.8375 0.6112 0.0528
1.8425 0.6786 0.0528
1.8475 0.6682 0.0544
1.8525 0.6918 0.0556
1.8575 0.5968 0.0517
1.8625 0.5727 0.0510
1.8675 0.5085 0.0470
1.8725 0.5544 0.0490
1.8775 0.5731 0.0502
1.8825 0.5296 0.0485
1.8875 0.5567 0.0502
1.8925 0.5028 0.0479
1.8975 0.6455 0.0525
1.9025 0.5816 0.0504
1.9075 0.5097 0.0475
1.9125 0.5921 0.0515
1.9175 0.5656 0.0504
1.9225 0.5622 0.0507
1.9275 0.4896 0.0460
1.9325 0.5389 0.0480
1.9375 0.4711 0.0462
1.9425 0.4845 0.0466
1.9475 0.4546 0.0457
1.9525 0.3930 0.0424
1.9575 0.4567 0.0437
1.9625 0.4208 0.0431
1.9675 0.4256 0.0432
1.9725 0.4046 0.0431
1.9775 0.3779 0.0414
1.9825 0.3695 0.0413
1.9875 0.3422 0.0380
1.9925 0.3566 0.0394
1.9975 0.3157 0.0377
2.0025 0.4348 0.0444
2.0075 0.3822 0.0417
2.0125 0.4549 0.0455
2.0175 0.4237 0.0426
2.0225 0.4542 0.0447
2.0275 0.4360 0.0440
2.0325 0.4149 0.0437
2.0375 0.4198 0.0435
2.0425 0.4137 0.0434
2.0475 0.3596 0.0395
2.0525 0.4159 0.0424
2.0575 0.3718 0.0410
2.0625 0.2788 0.0354
2.0675 0.2165 0.0313
2.0725 0.3236 0.0388
2.0775 0.2991 0.0363
2.0825 0.2011 0.0293
2.0875 0.2575 0.0338
2.0925 0.2381 0.0327
2.0975 0.2516 0.0340
2.1025 0.2458 0.0335
2.1075 0.2219 0.0317
2.1125 0.2624 0.0333
2.1175 0.2029 0.0299
2.1225 0.1500 0.0261
2.1275 0.1954 0.0298
2.1325 0.1759 0.0285
2.1375 0.1383 0.0252
2.1425 0.1250 0.0228
2.1475 0.1665 0.0270
2.1525 0.1577 0.0267
2.1575 0.1660 0.0277
2.1625 0.1759 0.0285
2.1675 0.1362 0.0249
2.1725 0.2026 0.0292
2.1775 0.0885 0.0198
2.1825 0.1170 0.0230
2.1875 0.0913 0.0204
2.1925 0.0872 0.0200
2.1975 0.0593 0.0165
2.2025 0.0941 0.0201
2.2075 0.0619 0.0166
2.2125 0.0800 0.0189
2.2175 0.0639 0.0171
2.2225 0.0458 0.0145
2.2275 0.0323 0.0122
2.2325 0.0306 0.0116
2.2375 0.0260 0.0106
2.2425 0.0179 0.0090
2.2475 0.0180 0.0090
2.2525 0.0227 0.0102
2.2575 0.0092 0.0065
2.2625 0.0139 0.0080
2.2675 0.0084 0.0060
2.2725 0.0310 0.0117
2.2775 0.0267 0.0109
2.2825 0.0046 0.0046
2.2875 0.0046 0.0046
2.2925 0.0000 1.0000
2.2975 0.0000 1.0000
2.3025 0.0089 0.0063
2.3075 0.0044 0.0044
2.3125 0.0000 1.0000
2.3175 0.0000 1.0000
2.3225 0.0000 1.0000
2.3275 0.0086 0.0061
2.3325 0.0045 0.0044
2.3375 0.0176 0.0088
2.3425 0.0317 0.0120
2.3475 0.0139 0.0080
2.3525 0.0138 0.0080
2.3575 0.0087 0.0062
2.3625 0.0085 0.0060
2.3675 0.0092 0.0065
2.3725 0.0000 1.0000
2.3775 0.0000 1.0000
2.3825 0.0000 1.0000
2.3875 0.0000 1.0000
2.3925 0.0000 1.0000
2.3975 0.0000 1.0000
2.4025 0.0135 0.0078
2.4075 0.0181 0.0091
2.4125 0.0000 1.0000
2.4175 0.0046 0.0046
2.4225 0.0000 1.0000
2.4275 0.0045 0.0045
2.4325 0.0090 0.0064
2.4375 0.0045 0.0045
2.4425 0.0046 0.0046
2.4475 0.0184 0.0092
2.4525 0.0000 1.0000
2.4575 0.0133 0.0077
2.4625 0.0000 1.0000
2.4675 0.0000 1.0000
2.4725 0.0000 1.0000
2.4775 0.0184 0.0092
2.4825 0.0084 0.0060
2.4875 0.0044 0.0044
2.4925 0.0090 0.0063
2.4975 0.0046 0.0046
2.5025 0.0046 0.0046
2.5075 0.0000 1.0000
2.5125 0.0126 0.0073
2.5175 0.0000 1.0000
2.5225 0.0000 1.0000
2.5275 0.0000 1.0000
2.5325 0.0000 1.0000
2.5375 0.0137 0.0079
2.5425 0.0000 1.0000
2.5475 0.0044 0.0044
2.5525 0.0044 0.0044
2.5575 0.0000 1.0000
2.5625 0.0045 0.0046
2.5675 0.0000 1.0000
2.5725 0.0082 0.0058
2.5775 0.0000 1.0000
2.5825 0.0180 0.0090
2.5875 0.0092 0.0065
2.5925 0.0134 0.0078
2.5975 0.0188 0.0094
2.6025 0.0325 0.0115
2.6075 0.0267 0.0109
2.6125 0.0044 0.0045
2.6175 0.0000 1.0000
2.6225 0.0000 1.0000
2.6275 0.0000 1.0000
2.6325 0.0043 0.0043
2.6375 0.0044 0.0044
2.6425 0.0045 0.0045
2.6475 0.0000 1.0000
2.6525 0.0000 1.0000
2.6575 0.0128 0.0074
2.6625 0.0043 0.0043
2.6675 0.0135 0.0078
2.6725 0.0269 0.0110
2.6775 0.0320 0.0121
2.6825 0.0183 0.0091
2.6875 0.0082 0.0058
2.6925 0.0133 0.0077
2.6975 0.0089 0.0063
0.0000 0.0000 1.0000
0.0000 0.0000 1.0000
0.0000 0.0000 1.0000
0.0000 0.0000 1.0000
0.0000 0.0000 1.0000
0.0000 0.0000 1.0000
0.0000 0.0000 1.0000
0.0000 0.0000 1.0000
0.0000 0.0000 1.0000
0.0000 0.0000 1.0000
0.0000 0.0000 1.0000
0.0000 0.0000 1.0000
0.0000 0.0000 1.0000
0.0000 0.0000 1.0000
