1.0725 0.6406 0.1373
1.0775 0.8629 0.1127
1.0825 1.0076 0.0975
1.0875 0.7964 0.0818
1.0925 0.9076 0.0829
1.0975 0.7284 0.0719
1.1025 0.7657 0.0652
1.1075 0.9415 0.0740
1.1125 0.8743 0.0689
1.1175 0.7863 0.0624
1.1225 0.9353 0.0652
1.1275 0.8295 0.0617
1.1325 0.9232 0.0643
1.1375 0.9340 0.0621
1.1425 1.0596 0.0666
1.1475 0.9128 0.0630
1.1525 0.8082 0.0594
1.1575 0.9507 0.0618
1.1625 0.9655 0.0640
1.1675 1.0176 0.0661
1.1725 1.0685 0.0674
1.1775 0.9245 0.0609
1.1825 0.9615 0.0645
1.1875 1.0351 0.0665
1.1925 1.1200 0.0682
1.1975 0.9756 0.0632
1.2025 1.0966 0.0679
1.2075 1.1689 0.0711
1.2125 1.0656 0.0659
1.2175 1.1543 0.0684
1.2225 1.1332 0.0697
1.2275 1.0208 0.0651
1.2325 1.1449 0.0688
1.2375 1.1112 0.0675
1.2425 1.2306 0.0712
1.2475 1.2418 0.0732
1.2525 1.2235 0.0705
1.2575 1.3327 0.0732
1.2625 1.2434 0.0723
1.2675 1.2570 0.0734
1.2725 1.2110 0.0702
1.2775 1.2840 0.0727
1.2825 1.3487 0.0758
1.2875 1.3642 0.0759
1.2925 1.2868 0.0740
1.2975 1.2587 0.0705
1.3025 1.2441 0.0723
1.3075 1.4016 0.0767
1.3125 1.3334 0.0757
1.3175 1.3710 0.0736
1.3225 1.3882 0.0762
1.3275 1.2630 0.0733
1.3325 1.3680 0.0766
1.3375 1.5618 0.0792
1.3425 1.4666 0.0787
1.3475 1.6139 0.0818
1.3525 1.5298 0.0816
1.3575 1.4636 0.0776
1.3625 1.4720 0.0780
1.3675 1.6767 0.0841
1.3725 1.6254 0.0828
1.3775 1.4982 0.0805
1.3825 1.6035 0.0806
1.3875 1.7300 0.0854
1.3925 1.5869 0.0818
1.3975 1.5755 0.0828
1.4025 1.5084 0.0793
1.4075 1.8787 0.0885
1.4125 1.6271 0.0827
1.4175 1.5946 0.0834
1.4225 1.8620 0.0900
1.4275 1.4863 0.0779
1.4325 1.7081 0.0845
1.4375 1.6851 0.0847
1.4425 1.8381 0.0896
1.4475 1.6730 0.0837
1.4525 1.6230 0.0824
1.4575 1.8474 0.0885
1.4625 1.5640 0.0823
1.4675 1.7254 0.0868
1.4725 1.6763 0.0834
1.4775 1.7765 0.0866
1.4825 1.7525 0.0865
1.4875 1.7999 0.0879
1.4925 1.7097 0.0868
1.4975 1.7070 0.0842
1.5025 1.6803 0.0840
1.5075 1.7027 0.0862
1.5125 1.6540 0.0846
1.5175 1.7206 0.0873
1.5225 1.6258 0.0810
1.5275 1.6228 0.0829
1.5325 1.6544 0.0856
1.5375 1.6321 0.0852
1.5425 1.4234 0.0794
1.5475 1.6815 0.0818
1.5525 1.4600 0.0795
1.5575 1.6037 0.0837
1.5625 1.5639 0.0823
1.5675 1.4813 0.0813
1.5725 1.5041 0.0785
1.5775 1.4824 0.0799
1.5825 1.4823 0.0803
1.5875 1.4445 0.0794
1.5925 1.5197 0.0826
1.5975 1.4238 0.0762
1.6025 1.4251 0.0779
1.6075 1.3674 0.0778
1.6125 1.4537 0.0804
1.6175 1.4438 0.0805
1.6225 1.3293 0.0740
1.6275 1.3518 0.0765
1.6325 1.3582 0.0765
1.6375 1.3724 0.0784
1.6425 1.2313 0.0740
1.6475 1.1799 0.0701
1.6525 1.2030 0.0719
1.6575 1.1787 0.0714
1.6625 1.2560 0.0750
1.6675 1.0893 0.0696
1.6725 1.1880 0.0711
1.6775 1.0947 0.0684
1.6825 1.1624 0.0712
1.6875 1.2651 0.0753
1.6925 1.1022 0.0698
1.6975 0.9683 0.0659
1.7025 1.1410 0.0687
1.7075 0.9275 0.0632
1.7125 1.0270 0.0676
1.7175 1.0095 0.0665
1.7225 1.0403 0.0686
1.7275 0.8989 0.0616
1.7325 0.9908 0.0655
1.7375 0.9781 0.0656
1.7425 0.8208 0.0607
1.7475 0.8755 0.0625
1.7525 0.8035 0.0606
1.7575 0.9546 0.0625
1.7625 0.9179 0.0630
1.7675 0.8045 0.0598
1.7725 0.8346 0.0612
1.7775 0.6944 0.0563
1.7825 0.8759 0.0612
1.7875 0.7686 0.0574
1.7925 0.7385 0.0568
1.7975 0.8156 0.0602
1.8025 0.6424 0.0539
1.8075 0.6605 0.0549
1.8125 0.6341 0.0512
1.8175 0.7444 0.0573
1.8225 0.7104 0.0559
1.8275 0.6623 0.0546
1.8325 0.7281 0.0574
1.8375 0.6524 0.0546
1.8425 0.6176 0.0504
1.8475 0.5750 0.0504
1.8525 0.6607 0.0543
1.8575 0.6686 0.0548
1.8625 0.6365 0.0538
1.8675 0.5788 0.0502
1.8725 0.5157 0.0472
1.8775 0.5068 0.0473
1.8825 0.5340 0.0487
1.8875 0.4485 0.0451
1.8925 0.4799 0.0468
1.8975 0.4274 0.0427
1.9025 0.4900 0.0463
1.9075 0.4785 0.0460
1.9125 0.5253 0.0485
1.9175 0.4176 0.0433
1.9225 0.3978 0.0426
1.9275 0.4460 0.0439
1.9325 0.3976 0.0412
1.9375 0.4077 0.0430
1.9425 0.4220 0.0435
1.9475 0.3905 0.0423
1.9525 0.3702 0.0411
1.9575 0.4398 0.0429
1.9625 0.3851 0.0413
1.9675 0.4123 0.0425
1.9725 0.3396 0.0395
1.9775 0.3508 0.0399
1.9825 0.2584 0.0345
1.9875 0.4015 0.0412
1.9925 0.3481 0.0389
1.9975 0.3607 0.0403
2.0025 0.3308 0.0387
2.0075 0.3137 0.0378
2.0125 0.2909 0.0364
2.0175 0.3036 0.0360
2.0225 0.2512 0.0333
2.0275 0.2533 0.0336
2.0325 0.2997 0.0372
2.0375 0.2660 0.0346
2.0425 0.2771 0.0355
2.0475 0.2815 0.0349
2.0525 0.1993 0.0294
2.0575 0.2358 0.0327
2.0625 0.2564 0.0340
2.0675 0.2436 0.0332
2.0725 0.2031 0.0307
2.0775 0.2640 0.0341
2.0825 0.2095 0.0299
2.0875 0.2087 0.0305
2.0925 0.1982 0.0299
2.0975 0.1924 0.0297
2.1025 0.1825 0.0289
2.1075 0.1808 0.0286
2.1125 0.1569 0.0258
2.1175 0.1938 0.0292
2.1225 0.1681 0.0276
2.1275 0.2273 0.0321
2.1325 0.1807 0.0289
2.1375 0.1981 0.0302
2.1425 0.2163 0.0300
2.1475 0.1492 0.0256
2.1525 0.1216 0.0234
2.1575 0.1337 0.0248
2.1625 0.1389 0.0254
2.1675 0.2089 0.0308
2.1725 0.1265 0.0231
2.1775 0.1327 0.0242
2.1825 0.1260 0.0238
2.1875 0.1509 0.0263
2.1925 0.0917 0.0205
2.1975 0.1005 0.0214
2.2025 0.0600 0.0160
2.2075 0.0795 0.0188
2.2125 0.0578 0.0160
2.2175 0.0549 0.0158
2.2225 0.0228 0.0102
2.2275 0.0461 0.0146
2.2325 0.0263 0.0107
2.2375 0.0304 0.0115
2.2425 0.0180 0.0090
2.2475 0.0180 0.0090
2.2525 0.0227 0.0102
2.2575 0.0184 0.0092
2.2625 0.0092 0.0065
2.2675 0.0336 0.0119
2.2725 0.0133 0.0077
2.2775 0.0089 0.0063
2.2825 0.0092 0.0065
2.2875 0.0092 0.0065
2.2925 0.0046 0.0046
2.2975 0.0083 0.0059
2.3025 0.0045 0.0044
2.3075 0.0088 0.0063
2.3125 0.0136 0.0079
2.3175 0.0000 1.0000
2.3225 0.0093 0.0066
2.3275 0.0043 0.0043
2.3325 0.0043 0.0044
2.3375 0.0043 0.0044
2.3425 0.0045 0.0045
2.3475 0.0045 0.0046
2.3525 0.0046 0.0046
2.3575 0.0262 0.0107
2.3625 0.0085 0.0060
2.3675 0.0046 0.0046
2.3725 0.0000 1.0000
2.3775 0.0091 0.0065
2.3825 0.0092 0.0065
2.3875 0.0045 0.0045
2.3925 0.0042 0.0042
2.3975 0.0044 0.0044
2.4025 0.0045 0.0045
2.4075 0.0090 0.0064
2.4125 0.0047 0.0046
2.4175 0.0000 1.0000
2.4225 0.0041 0.0041
2.4275 0.0045 0.0045
2.4325 0.0090 0.0064
2.4375 0.0045 0.0045
2.4425 0.0046 0.0046
2.4475 0.0000 1.0000
2.4525 0.0042 0.0042
2.4575 0.0088 0.0063
2.4625 0.0180 0.0090
2.4675 0.0184 0.0092
2.4725 0.0046 0.0046
2.4775 0.0092 0.0065
2.4825 0.0042 0.0042
2.4875 0.0087 0.0062
2.4925 0.0089 0.0063
2.4975 0.0046 0.0046
2.5025 0.0046 0.0046
2.5075 0.0415 0.0138
2.5125 0.0168 0.0084
2.5175 0.0088 0.0062
2.5225 0.0180 0.0090
2.5275 0.0044 0.0045
2.5325 0.0046 0.0047
2.5375 0.0000 1.0000
2.5425 0.0000 1.0000
2.5475 0.0044 0.0044
2.5525 0.0134 0.0077
2.5575 0.0409 0.0137
2.5625 0.0318 0.0121
2.5675 0.0046 0.0046
2.5725 0.0124 0.0072
2.5775 0.0044 0.0044
2.5825 0.0000 1.0000
2.5875 0.0091 0.0065
2.5925 0.0090 0.0064
2.5975 0.0094 0.0066
2.6025 0.0082 0.0058
2.6075 0.0044 0.0044
2.6125 0.0045 0.0045
2.6175 0.0090 0.0064
2.6225 0.0137 0.0079
2.6275 0.0219 0.0098
2.6325 0.0128 0.0074
2.6375 0.0089 0.0063
2.6425 0.0045 0.0045
2.6475 0.0180 0.0090
2.6525 0.0139 0.0080
2.6575 0.0085 0.0060
2.6625 0.0215 0.0096
2.6675 0.0315 0.0119
2.6725 0.0269 0.0110
2.6775 0.0046 0.0046
2.6825 0.0275 0.0112
2.6875 0.0083 0.0058
2.6925 0.0000 1.0000
2.6975 0.0044 0.0044
0.0000 0.0000 1.0000
0.0000 0.0000 1.0000
0.0000 0.0000 1.0000
0.0000 0.0000 1.0000
0.0000 0.0000 1.0000
0.0000 0.0000 1.0000
0.0000 0.0000 1.0000
0.0000 0.0000 1.0000
0.0000 0.0000 1.0000
0.0000 0.0000 1.0000
0.0000 0.0000 1.0000
0.0000 0.0000 1.0000
0.0000 0.0000 1.0000
0.0000 0.0000 1.0000
