1.0725 0.7552 0.1490
1.0775 0.8334 0.1107
1.0825 0.7437 0.0838
1.0875 0.7468 0.0792
1.0925 0.6886 0.0722
1.0975 0.8917 0.0795
1.1025 0.8434 0.0685
1.1075 0.7553 0.0663
1.1125 0.7766 0.0650
1.1175 0.8801 0.0660
1.1225 0.8401 0.0618
1.1275 0.8437 0.0622
1.1325 0.9188 0.0642
1.1375 0.8761 0.0602
1.1425 0.9039 0.0615
1.1475 0.9263 0.0635
1.1525 0.8034 0.0592
1.1575 0.9270 0.0610
1.1625 0.9785 0.0644
1.1675 1.0864 0.0683
1.1725 1.0212 0.0659
1.1775 1.0126 0.0638
1.1825 1.0010 0.0658
1.1875 1.0005 0.0654
1.1925 1.0086 0.0647
1.1975 0.9835 0.0635
1.2025 1.0546 0.0666
1.2075 1.2080 0.0723
1.2125 1.0945 0.0668
1.2175 1.0291 0.0645
1.2225 1.0735 0.0679
1.2275 1.1910 0.0703
1.2325 1.0826 0.0669
1.2375 1.0415 0.0653
1.2425 1.1972 0.0702
1.2475 1.0392 0.0669
1.2525 1.1979 0.0698
1.2575 1.1604 0.0683
1.2625 1.2018 0.0711
1.2675 1.1115 0.0691
1.2725 1.3451 0.0739
1.2775 1.2011 0.0703
1.2825 1.1786 0.0708
1.2875 1.2086 0.0714
1.2925 1.3300 0.0752
1.2975 1.2227 0.0695
1.3025 1.4607 0.0783
1.3075 1.2963 0.0738
1.3125 1.2742 0.0739
1.3175 1.3827 0.0739
1.3225 1.3505 0.0752
1.3275 1.2459 0.0728
1.3325 1.4033 0.0776
1.3375 1.3887 0.0747
1.3425 1.4171 0.0773
1.3475 1.5063 0.0791
1.3525 1.3988 0.0780
1.3575 1.4725 0.0778
1.3625 1.4629 0.0777
1.3675 1.4022 0.0769
1.3725 1.4523 0.0783
1.3775 1.5462 0.0818
1.3825 1.5221 0.0785
1.3875 1.7592 0.0862
1.3925 1.4645 0.0786
1.3975 1.7107 0.0862
1.4025 1.7467 0.0853
1.4075 1.6073 0.0818
1.4125 1.6057 0.0821
1.4175 1.5734 0.0829
1.4225 1.5535 0.0822
1.4275 1.6782 0.0828
1.4325 1.7125 0.0846
1.4375 1.9245 0.0905
1.4425 1.9176 0.0915
1.4475 1.6731 0.0837
1.4525 1.7196 0.0848
1.4575 1.6305 0.0831
1.4625 1.8366 0.0892
1.4675 1.7695 0.0879
1.4725 1.7837 0.0860
1.4775 1.7814 0.0867
1.4825 1.6496 0.0840
1.4875 1.8002 0.0879
1.4925 1.6880 0.0862
1.4975 1.6785 0.0835
1.5025 1.7613 0.0860
1.5075 1.6781 0.0856
1.5125 1.5328 0.0815
1.5175 1.6767 0.0861
1.5225 1.6706 0.0821
1.5275 1.6524 0.0837
1.5325 1.6097 0.0844
1.5375 1.6899 0.0867
1.5425 1.5791 0.0836
1.5475 1.5197 0.0778
1.5525 1.5607 0.0822
1.5575 1.4243 0.0789
1.5625 1.5706 0.0825
1.5675 1.4093 0.0793
1.5725 1.4090 0.0760
1.5775 1.5472 0.0817
1.5825 1.3074 0.0754
1.5875 1.3576 0.0770
1.5925 1.4653 0.0811
1.5975 1.5297 0.0790
1.6025 1.3746 0.0765
1.6075 1.5179 0.0820
1.6125 1.5075 0.0819
1.6175 1.4310 0.0801
1.6225 1.4406 0.0770
1.6275 1.3250 0.0757
1.6325 1.4053 0.0778
1.6375 1.2289 0.0742
1.6425 1.3073 0.0762
1.6475 1.2211 0.0713
1.6525 1.2636 0.0736
1.6575 1.2857 0.0746
1.6625 1.2157 0.0738
1.6675 1.2451 0.0744
1.6725 1.3288 0.0752
1.6775 1.1847 0.0712
1.6825 1.0612 0.0681
1.6875 1.1172 0.0708
1.6925 1.1775 0.0722
1.6975 0.9470 0.0652
1.7025 1.1410 0.0687
1.7075 1.0136 0.0661
1.7125 0.8844 0.0627
1.7175 1.0001 0.0662
1.7225 0.8827 0.0632
1.7275 0.9453 0.0632
1.7325 1.0260 0.0666
1.7375 0.9385 0.0643
1.7425 1.0403 0.0683
1.7475 0.9511 0.0652
1.7525 0.8673 0.0629
1.7575 0.9263 0.0616
1.7625 0.8266 0.0598
1.7675 0.9423 0.0647
1.7725 0.8654 0.0623
1.7775 0.8722 0.0631
1.7825 0.7952 0.0583
1.7875 0.8283 0.0596
1.7925 0.9308 0.0638
1.7975 0.7089 0.0561
1.8025 0.7457 0.0581
1.8075 0.7300 0.0577
1.8125 0.6634 0.0524
1.8175 0.7090 0.0559
1.8225 0.7226 0.0564
1.8275 0.7440 0.0579
1.8325 0.5935 0.0518
1.8375 0.6669 0.0552
1.8425 0.6223 0.0506
1.8475 0.6016 0.0516
1.8525 0.6784 0.0550
1.8575 0.5749 0.0508
1.8625 0.6044 0.0524
1.8675 0.6263 0.0522
1.8725 0.5028 0.0467
1.8775 0.6351 0.0529
1.8825 0.5208 0.0481
1.8875 0.5257 0.0488
1.8925 0.4574 0.0457
1.8975 0.4400 0.0434
1.9025 0.5289 0.0481
1.9075 0.4786 0.0460
1.9125 0.4175 0.0433
1.9175 0.4761 0.0462
1.9225 0.4888 0.0472
1.9275 0.4288 0.0431
1.9325 0.4110 0.0419
1.9375 0.3536 0.0400
1.9425 0.4535 0.0451
1.9475 0.4268 0.0442
1.9525 0.3843 0.0419
1.9575 0.4232 0.0421
1.9625 0.4072 0.0424
1.9675 0.3818 0.0409
1.9725 0.2941 0.0367
1.9775 0.3281 0.0386
1.9825 0.3783 0.0418
1.9875 0.3507 0.0385
1.9925 0.3004 0.0361
1.9975 0.3604 0.0403
2.0025 0.3172 0.0379
2.0075 0.3231 0.0383
2.0125 0.2545 0.0340
2.0175 0.3461 0.0385
2.0225 0.2953 0.0361
2.0275 0.2977 0.0364
2.0325 0.2859 0.0363
2.0375 0.2930 0.0363
2.0425 0.2410 0.0331
2.0475 0.3163 0.0370
2.0525 0.2167 0.0306
2.0575 0.2810 0.0357
2.0625 0.2161 0.0312
2.0675 0.2660 0.0347
2.0725 0.1938 0.0300
2.0775 0.2603 0.0339
2.0825 0.2343 0.0316
2.0875 0.1958 0.0295
2.0925 0.2566 0.0340
2.0975 0.2469 0.0337
2.1025 0.1916 0.0296
2.1075 0.1901 0.0293
2.1125 0.1694 0.0268
2.1175 0.1850 0.0285
2.1225 0.1274 0.0241
2.1275 0.2045 0.0305
2.1325 0.1762 0.0286
2.1375 0.1705 0.0280
2.1425 0.1459 0.0247
2.1475 0.1097 0.0219
2.1525 0.1396 0.0251
2.1575 0.1197 0.0235
2.1625 0.1575 0.0270
2.1675 0.1228 0.0236
2.1725 0.1350 0.0239
2.1775 0.1193 0.0230
2.1825 0.1575 0.0266
2.1875 0.1279 0.0242
2.1925 0.1379 0.0252
2.1975 0.1279 0.0242
2.2025 0.0897 0.0196
2.2075 0.1150 0.0226
2.2125 0.0667 0.0172
2.2175 0.0777 0.0188
2.2225 0.0730 0.0183
2.2275 0.0461 0.0146
2.2325 0.1010 0.0210
2.2375 0.0610 0.0163
2.2425 0.0270 0.0110
2.2475 0.0181 0.0090
2.2525 0.0181 0.0091
2.2575 0.0046 0.0046
2.2625 0.0000 1.0000
2.2675 0.0126 0.0073
2.2725 0.0044 0.0044
2.2775 0.0223 0.0100
2.2825 0.0046 0.0046
2.2875 0.0000 1.0000
2.2925 0.0047 0.0047
2.2975 0.0084 0.0059
2.3025 0.0134 0.0077
2.3075 0.0134 0.0077
2.3125 0.0000 1.0000
2.3175 0.0046 0.0046
2.3225 0.0092 0.0065
2.3275 0.0043 0.0043
2.3325 0.0087 0.0062
2.3375 0.0087 0.0062
2.3425 0.0137 0.0079
2.3475 0.0409 0.0137
2.3525 0.0320 0.0121
2.3575 0.0131 0.0076
2.3625 0.0085 0.0060
2.3675 0.0274 0.0112
2.3725 0.0180 0.0090
2.3775 0.0000 1.0000
2.3825 0.0047 0.0047
2.3875 0.0000 1.0000
2.3925 0.0085 0.0060
2.3975 0.0133 0.0077
2.4025 0.0000 1.0000
2.4075 0.0182 0.0091
2.4125 0.0138 0.0080
2.4175 0.0092 0.0065
2.4225 0.0042 0.0042
2.4275 0.0089 0.0063
2.4325 0.0226 0.0101
2.4375 0.0045 0.0045
2.4425 0.0046 0.0046
2.4475 0.0092 0.0065
2.4525 0.0000 1.0000
2.4575 0.0088 0.0063
2.4625 0.0045 0.0045
2.4675 0.0000 1.0000
2.4725 0.0046 0.0046
2.4775 0.0046 0.0046
2.4825 0.0042 0.0042
2.4875 0.0000 1.0000
2.4925 0.0000 1.0000
2.4975 0.0137 0.0079
2.5025 0.0046 0.0046
2.5075 0.0275 0.0113
2.5125 0.0084 0.0059
2.5175 0.0176 0.0088
2.5225 0.0090 0.0064
2.5275 0.0178 0.0089
2.5325 0.0094 0.0066
2.5375 0.0046 0.0046
2.5425 0.0124 0.0071
2.5475 0.0266 0.0109
2.5525 0.0268 0.0109
2.5575 0.0182 0.0091
2.5625 0.0228 0.0102
2.5675 0.0000 1.0000
2.5725 0.0000 1.0000
2.5775 0.0045 0.0044
2.5825 0.0044 0.0045
2.5875 0.0000 1.0000
2.5925 0.0045 0.0045
2.5975 0.0093 0.0066
2.6025 0.0082 0.0058
2.6075 0.0088 0.0063
2.6125 0.0000 1.0000
2.6175 0.0000 1.0000
2.6225 0.0046 0.0046
2.6275 0.0132 0.0076
2.6325 0.0000 1.0000
2.6375 0.0044 0.0044
2.6425 0.0045 0.0045
2.6475 0.0045 0.0045
2.6525 0.0000 1.0000
2.6575 0.0042 0.0042
2.6625 0.0000 1.0000
2.6675 0.0000 1.0000
2.6725 0.0045 0.0045
2.6775 0.0092 0.0065
2.6825 0.0092 0.0065
2.6875 0.0041 0.0041
2.6925 0.0088 0.0062
2.6975 0.0000 1.0000
0.0000 0.0000 1.0000
0.0000 0.0000 1.0000
0.0000 0.0000 1.0000
0.0000 0.0000 1.0000
0.0000 0.0000 1.0000
0.0000 0.0000 1.0000
0.0000 0.0000 1.0000
0.0000 0.0000 1.0000
0.0000 0.0000 1.0000
0.0000 0.0000 1.0000
0.0000 0.0000 1.0000
0.0000 0.0000 1.0000
0.0000 0.0000 1.0000
0.0000 0.0000 1.0000
