1.0725 0.5238 0.1241
1.0775 0.8483 0.1117
1.0825 0.7902 0.0863
1.0875 0.7044 0.0769
1.0925 0.8619 0.0808
1.0975 0.6660 0.0687
1.1025 0.7879 0.0662
1.1075 0.8604 0.0707
1.1125 0.8804 0.0692
1.1175 0.9789 0.0696
1.1225 0.8084 0.0606
1.1275 0.8388 0.0620
1.1325 0.8337 0.0611
1.1375 0.8348 0.0587
1.1425 0.8997 0.0614
1.1475 0.9176 0.0632
1.1525 0.8947 0.0625
1.1575 0.9513 0.0618
1.1625 0.9788 0.0644
1.1675 0.9836 0.0650
1.1725 0.9576 0.0638
1.1775 0.9367 0.0613
1.1825 1.0350 0.0669
1.1875 1.0903 0.0683
1.1925 1.1539 0.0692
1.1975 1.0365 0.0652
1.2025 0.9410 0.0629
1.2075 1.0309 0.0668
1.2125 1.1105 0.0673
1.2175 1.1219 0.0674
1.2225 1.1845 0.0713
1.2275 1.1451 0.0689
1.2325 1.0995 0.0674
1.2375 1.1930 0.0699
1.2425 1.1157 0.0678
1.2475 1.1767 0.0712
1.2525 1.2313 0.0707
1.2575 1.0762 0.0657
1.2625 1.1967 0.0709
1.2675 1.2573 0.0735
1.2725 1.1822 0.0693
1.2775 1.2101 0.0706
1.2825 1.1698 0.0706
1.2875 1.3944 0.0767
1.2925 1.2909 0.0741
1.2975 1.3489 0.0730
1.3025 1.3442 0.0752
1.3075 1.2886 0.0736
1.3125 1.3898 0.0772
1.3175 1.5010 0.0770
1.3225 1.3055 0.0739
1.3275 1.5058 0.0800
1.3325 1.4932 0.0801
1.3375 1.5171 0.0781
1.3425 1.4632 0.0786
1.3475 1.4313 0.0771
1.3525 1.3426 0.0764
1.3575 1.4439 0.0771
1.3625 1.5330 0.0796
1.3675 1.5582 0.0811
1.3725 1.6130 0.0825
1.3775 1.5076 0.0808
1.3825 1.5430 0.0790
1.3875 1.6666 0.0839
1.3925 1.6208 0.0827
1.3975 1.6581 0.0849
1.4025 1.5875 0.0813
1.4075 1.6499 0.0829
1.4125 1.4628 0.0784
1.4175 1.6200 0.0841
1.4225 1.6660 0.0851
1.4275 1.6370 0.0817
1.4325 1.5698 0.0810
1.4375 1.6596 0.0840
1.4425 1.7777 0.0881
1.4475 1.7398 0.0853
1.4525 1.6112 0.0821
1.4575 1.6012 0.0824
1.4625 1.5902 0.0830
1.4675 1.6589 0.0851
1.4725 1.6473 0.0827
1.4775 1.6881 0.0844
1.4825 1.7394 0.0862
1.4875 1.7476 0.0866
1.4925 1.7097 0.0868
1.4975 1.6613 0.0830
1.5025 1.6308 0.0828
1.5075 1.5805 0.0831
1.5125 1.7323 0.0866
1.5175 1.7696 0.0885
1.5225 1.7474 0.0839
1.5275 1.5433 0.0809
1.5325 1.7606 0.0883
1.5375 1.5172 0.0821
1.5425 1.5792 0.0836
1.5475 1.4129 0.0750
1.5525 1.6463 0.0844
1.5575 1.6737 0.0855
1.5625 1.6403 0.0843
1.5675 1.4769 0.0812
1.5725 1.3798 0.0752
1.5775 1.4823 0.0799
1.5825 1.4091 0.0783
1.5875 1.3835 0.0777
1.5925 1.5020 0.0821
1.5975 1.4556 0.0771
1.6025 1.5018 0.0799
1.6075 1.3502 0.0773
1.6125 1.4043 0.0790
1.6175 1.3808 0.0787
1.6225 1.1730 0.0695
1.6275 1.3763 0.0772
1.6325 1.2245 0.0726
1.6375 1.3906 0.0790
1.6425 1.2362 0.0741
1.6475 1.3382 0.0747
1.6525 1.3448 0.0760
1.6575 1.3044 0.0751
1.6625 1.1480 0.0717
1.6675 1.1915 0.0728
1.6725 1.1410 0.0697
1.6775 1.2144 0.0720
1.6825 1.1886 0.0720
1.6875 1.0588 0.0689
1.6925 1.0839 0.0693
1.6975 1.1037 0.0704
1.7025 1.1116 0.0678
1.7075 1.0735 0.0680
1.7125 0.9557 0.0652
1.7175 1.0043 0.0664
1.7225 0.9593 0.0659
1.7275 0.9753 0.0642
1.7325 0.9521 0.0642
1.7375 0.8063 0.0596
1.7425 0.8474 0.0616
1.7475 0.9242 0.0642
1.7525 0.8763 0.0633
1.7575 0.8771 0.0600
1.7625 0.7535 0.0571
1.7675 0.8400 0.0611
1.7725 0.8026 0.0600
1.7775 0.9408 0.0655
1.7825 0.8082 0.0588
1.7875 0.7515 0.0568
1.7925 0.8218 0.0599
1.7975 0.7134 0.0563
1.8025 0.6063 0.0524
1.8075 0.6788 0.0557
1.8125 0.6675 0.0525
1.8175 0.7179 0.0562
1.8225 0.6214 0.0523
1.8275 0.6619 0.0546
1.8325 0.5747 0.0510
1.8375 0.5890 0.0519
1.8425 0.5229 0.0464
1.8475 0.5705 0.0502
1.8525 0.5758 0.0507
1.8575 0.5840 0.0512
1.8625 0.5274 0.0490
1.8675 0.6568 0.0534
1.8725 0.5544 0.0490
1.8775 0.5464 0.0491
1.8825 0.5698 0.0503
1.8875 0.5350 0.0492
1.8925 0.6269 0.0535
1.8975 0.4618 0.0444
1.9025 0.4592 0.0448
1.9075 0.4429 0.0443
1.9125 0.4757 0.0462
1.9175 0.4671 0.0458
1.9225 0.4436 0.0450
1.9275 0.4546 0.0444
1.9325 0.4020 0.0414
1.9375 0.3808 0.0415
1.9425 0.4532 0.0451
1.9475 0.3764 0.0416
1.9525 0.4529 0.0455
1.9575 0.3728 0.0395
1.9625 0.3855 0.0413
1.9675 0.3646 0.0400
1.9725 0.3492 0.0400
1.9775 0.3870 0.0419
1.9825 0.3830 0.0420
1.9875 0.2788 0.0343
1.9925 0.3482 0.0389
1.9975 0.3201 0.0380
2.0025 0.3533 0.0400
2.0075 0.2551 0.0341
2.0125 0.2637 0.0346
2.0175 0.2909 0.0353
2.0225 0.2818 0.0352
2.0275 0.2356 0.0324
2.0325 0.2120 0.0313
2.0375 0.3249 0.0383
2.0425 0.2913 0.0364
2.0475 0.2123 0.0303
2.0525 0.2902 0.0354
2.0575 0.2130 0.0310
2.0625 0.2571 0.0340
2.0675 0.2926 0.0364
2.0725 0.2817 0.0362
2.0775 0.1720 0.0275
2.0825 0.2092 0.0299
2.0875 0.2397 0.0326
2.0925 0.2116 0.0309
2.0975 0.1879 0.0294
2.1025 0.1412 0.0254
2.1075 0.1898 0.0293
2.1125 0.1695 0.0268
2.1175 0.1454 0.0253
2.1225 0.2135 0.0312
2.1275 0.2089 0.0308
2.1325 0.1804 0.0289
2.1375 0.2121 0.0313
2.1425 0.1708 0.0267
2.1475 0.1314 0.0240
2.1525 0.1486 0.0259
2.1575 0.2074 0.0309
2.1625 0.2129 0.0314
2.1675 0.1589 0.0269
2.1725 0.1690 0.0267
2.1775 0.1459 0.0254
2.1825 0.1170 0.0230
2.1875 0.1185 0.0233
2.1925 0.1101 0.0225
2.1975 0.0822 0.0194
2.2025 0.0771 0.0181
2.2075 0.0708 0.0177
2.2125 0.0491 0.0148
2.2175 0.0502 0.0151
2.2225 0.0502 0.0151
2.2275 0.0645 0.0172
2.2325 0.0569 0.0158
2.2375 0.0261 0.0106
2.2425 0.0135 0.0078
2.2475 0.0045 0.0045
2.2525 0.0000 1.0000
2.2575 0.0092 0.0065
2.2625 0.0092 0.0065
2.2675 0.0042 0.0042
2.2725 0.0045 0.0044
2.2775 0.0044 0.0044
2.2825 0.0138 0.0080
2.2875 0.0092 0.0065
2.2925 0.0047 0.0047
2.2975 0.0000 1.0000
2.3025 0.0000 1.0000
2.3075 0.0044 0.0044
2.3125 0.0090 0.0064
2.3175 0.0092 0.0065
2.3225 0.0000 1.0000
2.3275 0.0000 1.0000
2.3325 0.0000 1.0000
2.3375 0.0044 0.0044
2.3425 0.0045 0.0045
2.3475 0.0091 0.0065
2.3525 0.0046 0.0046
2.3575 0.0000 1.0000
2.3625 0.0042 0.0042
2.3675 0.0000 1.0000
2.3725 0.0000 1.0000
2.3775 0.0182 0.0091
2.3825 0.0138 0.0080
2.3875 0.0089 0.0063
2.3925 0.0168 0.0084
2.3975 0.0177 0.0089
2.4025 0.0090 0.0064
2.4075 0.0182 0.0091
2.4125 0.0092 0.0065
2.4175 0.0091 0.0065
2.4225 0.0124 0.0072
2.4275 0.0000 1.0000
2.4325 0.0046 0.0045
2.4375 0.0000 1.0000
2.4425 0.0000 1.0000
2.4475 0.0000 1.0000
2.4525 0.0000 1.0000
2.4575 0.0089 0.0063
2.4625 0.0045 0.0045
2.4675 0.0046 0.0046
2.4725 0.0136 0.0079
2.4775 0.0000 1.0000
2.4825 0.0000 1.0000
2.4875 0.0131 0.0075
2.4925 0.0045 0.0045
2.4975 0.0046 0.0046
2.5025 0.0046 0.0046
2.5075 0.0185 0.0092
2.5125 0.0125 0.0073
2.5175 0.0044 0.0044
2.5225 0.0135 0.0078
2.5275 0.0044 0.0045
2.5325 0.0093 0.0066
2.5375 0.0000 1.0000
2.5425 0.0247 0.0101
2.5475 0.0000 1.0000
2.5525 0.0000 1.0000
2.5575 0.0275 0.0112
2.5625 0.0137 0.0079
2.5675 0.0323 0.0122
2.5725 0.0330 0.0117
2.5775 0.0176 0.0088
2.5825 0.0135 0.0078
2.5875 0.0090 0.0064
2.5925 0.0000 1.0000
2.5975 0.0000 1.0000
2.6025 0.0082 0.0058
2.6075 0.0044 0.0044
2.6125 0.0000 1.0000
2.6175 0.0000 1.0000
2.6225 0.0000 1.0000
2.6275 0.0263 0.0107
2.6325 0.0127 0.0074
2.6375 0.0045 0.0045
2.6425 0.0090 0.0064
2.6475 0.0000 1.0000
2.6525 0.0092 0.0065
2.6575 0.0127 0.0073
2.6625 0.0043 0.0043
2.6675 0.0090 0.0063
2.6725 0.0135 0.0078
2.6775 0.0092 0.0065
2.6825 0.0000 1.0000
2.6875 0.0000 1.0000
2.6925 0.0044 0.0044
2.6975 0.0044 0.0044
0.0000 0.0000 1.0000
0.0000 0.0000 1.0000
0.0000 0.0000 1.0000
0.0000 0.0000 1.0000
0.0000 0.0000 1.0000
0.0000 0.0000 1.0000
0.0000 0.0000 1.0000
0.0000 0.0000 1.0000
0.0000 0.0000 1.0000
0.0000 0.0000 1.0000
0.0000 0.0000 1.0000
0.0000 0.0000 1.0000
0.0000 0.0000 1.0000
0.0000 0.0000 1.0000
