1.0725 1.1650 0.1851
1.0775 1.1274 0.1288
1.0825 0.8941 0.0918
1.0875 0.8047 0.0822
1.0925 0.8627 0.0808
1.0975 0.7152 0.0712
1.1025 0.7999 0.0667
1.1075 0.7547 0.0662
1.1125 0.7977 0.0658
1.1175 0.8061 0.0632
1.1225 0.8496 0.0621
1.1275 0.8941 0.0640
1.1325 1.0170 0.0675
1.1375 1.0046 0.0644
1.1425 0.8747 0.0605
1.1475 0.8912 0.0622
1.1525 0.8511 0.0610
1.1575 0.8706 0.0591
1.1625 0.9490 0.0634
1.1675 0.9229 0.0629
1.1725 1.0294 0.0662
1.1775 0.9685 0.0624
1.1825 0.9879 0.0654
1.1875 0.9277 0.0630
1.1925 1.0046 0.0646
1.1975 0.9676 0.0630
1.2025 0.9880 0.0644
1.2075 1.0135 0.0662
1.2125 1.1794 0.0694
1.2175 1.1786 0.0691
1.2225 1.2360 0.0728
1.2275 1.0705 0.0666
1.2325 1.1700 0.0695
1.2375 1.3000 0.0730
1.2425 1.1073 0.0675
1.2475 0.9866 0.0652
1.2525 1.1418 0.0681
1.2575 1.1602 0.0683
1.2625 1.3440 0.0751
1.2675 1.2738 0.0739
1.2725 1.3333 0.0736
1.2775 1.1649 0.0692
1.2825 1.1836 0.0710
1.2875 1.3220 0.0747
1.2925 1.2653 0.0734
1.2975 1.3183 0.0722
1.3025 1.4030 0.0768
1.3075 1.1876 0.0706
1.3125 1.2716 0.0739
1.3175 1.3556 0.0732
1.3225 1.2761 0.0731
1.3275 1.5518 0.0813
1.3325 1.5832 0.0824
1.3375 1.3564 0.0738
1.3425 1.3069 0.0743
1.3475 1.3851 0.0758
1.3525 1.4293 0.0788
1.3575 1.4319 0.0768
1.3625 1.5127 0.0791
1.3675 1.5377 0.0805
1.3725 1.6167 0.0826
1.3775 1.5372 0.0816
1.3825 1.7738 0.0847
1.3875 1.6492 0.0834
1.3925 1.6716 0.0840
1.3975 1.6148 0.0838
1.4025 1.5227 0.0797
1.4075 1.6962 0.0841
1.4125 1.6103 0.0823
1.4175 1.6213 0.0841
1.4225 1.6707 0.0852
1.4275 1.7193 0.0838
1.4325 1.6830 0.0839
1.4375 1.6304 0.0833
1.4425 1.6169 0.0840
1.4475 1.7355 0.0852
1.4525 1.6860 0.0840
1.4575 1.5673 0.0815
1.4625 1.6632 0.0849
1.4675 1.5287 0.0817
1.4725 1.6556 0.0829
1.4775 1.4816 0.0791
1.4825 1.7137 0.0856
1.4875 1.6408 0.0839
1.4925 1.8190 0.0895
1.4975 1.6112 0.0818
1.5025 1.6855 0.0842
1.5075 1.5895 0.0833
1.5125 1.4630 0.0796
1.5175 1.7160 0.0871
1.5225 1.6414 0.0814
1.5275 1.6022 0.0824
1.5325 1.6195 0.0847
1.5375 1.5521 0.0831
1.5425 1.5744 0.0835
1.5475 1.5170 0.0777
1.5525 1.6075 0.0834
1.5575 1.4729 0.0802
1.5625 1.5538 0.0820
1.5675 1.6074 0.0847
1.5725 1.5406 0.0795
1.5775 1.4263 0.0784
1.5825 1.4295 0.0788
1.5875 1.4452 0.0794
1.5925 1.5827 0.0842
1.5975 1.3753 0.0749
1.6025 1.4799 0.0794
1.6075 1.4469 0.0800
1.6125 1.3424 0.0772
1.6175 1.3588 0.0781
1.6225 1.3132 0.0735
1.6275 1.3513 0.0765
1.6325 1.3104 0.0752
1.6375 1.2112 0.0737
1.6425 1.3914 0.0786
1.6475 1.2588 0.0724
1.6525 1.2599 0.0735
1.6575 1.2253 0.0728
1.6625 1.1261 0.0711
1.6675 1.0721 0.0690
1.6725 1.1624 0.0703
1.6775 1.0475 0.0669
1.6825 1.1094 0.0696
1.6875 1.1124 0.0706
1.6925 1.0671 0.0687
1.6975 1.0995 0.0702
1.7025 0.9676 0.0632
1.7075 1.0052 0.0658
1.7125 0.9870 0.0662
1.7175 1.0088 0.0665
1.7225 0.9548 0.0657
1.7275 0.9670 0.0639
1.7325 0.8268 0.0598
1.7375 0.8238 0.0602
1.7425 0.9462 0.0651
1.7475 0.8307 0.0609
1.7525 0.8673 0.0629
1.7575 0.8818 0.0601
1.7625 0.8699 0.0614
1.7675 0.8620 0.0619
1.7725 0.7536 0.0581
1.7775 0.7851 0.0599
1.7825 0.7310 0.0559
1.7875 0.8375 0.0600
1.7925 0.8402 0.0606
1.7975 0.7087 0.0561
1.8025 0.6552 0.0544
1.8075 0.7056 0.0568
1.8125 0.5889 0.0493
1.8175 0.7132 0.0561
1.8225 0.5062 0.0472
1.8275 0.5629 0.0504
1.8325 0.6120 0.0526
1.8375 0.5383 0.0496
1.8425 0.6663 0.0524
1.8475 0.4959 0.0468
1.8525 0.5000 0.0472
1.8575 0.5028 0.0475
1.8625 0.5460 0.0498
1.8675 0.5136 0.0473
1.8725 0.6153 0.0516
1.8775 0.4761 0.0458
1.8825 0.5336 0.0487
1.8875 0.4484 0.0450
1.8925 0.5127 0.0484
1.8975 0.4529 0.0440
1.9025 0.4287 0.0433
1.9075 0.4474 0.0445
1.9125 0.4311 0.0440
1.9175 0.4985 0.0473
1.9225 0.3429 0.0396
1.9275 0.3639 0.0397
1.9325 0.3550 0.0389
1.9375 0.4125 0.0432
1.9425 0.3461 0.0394
1.9475 0.4042 0.0431
1.9525 0.3522 0.0401
1.9575 0.3812 0.0399
1.9625 0.3680 0.0404
1.9675 0.4038 0.0421
1.9725 0.3536 0.0403
1.9775 0.3006 0.0370
1.9825 0.3507 0.0402
1.9875 0.3633 0.0392
1.9925 0.3047 0.0364
1.9975 0.3381 0.0390
2.0025 0.2946 0.0365
2.0075 0.2957 0.0367
2.0125 0.3093 0.0375
2.0175 0.3120 0.0365
2.0225 0.2427 0.0327
2.0275 0.2850 0.0356
2.0325 0.2443 0.0336
2.0375 0.2840 0.0358
2.0425 0.2684 0.0349
2.0475 0.2124 0.0303
2.0525 0.2686 0.0341
2.0575 0.2539 0.0339
2.0625 0.2336 0.0324
2.0675 0.1758 0.0282
2.0725 0.2128 0.0315
2.0775 0.1584 0.0264
2.0825 0.1662 0.0267
2.0875 0.1911 0.0291
2.0925 0.1936 0.0295
2.0975 0.2377 0.0330
2.1025 0.1555 0.0266
2.1075 0.1494 0.0260
2.1125 0.1271 0.0232
2.1175 0.1628 0.0268
2.1225 0.1771 0.0284
2.1275 0.1635 0.0273
2.1325 0.2360 0.0331
2.1375 0.1936 0.0299
2.1425 0.1416 0.0243
2.1475 0.1448 0.0252
2.1525 0.1261 0.0238
2.1575 0.1197 0.0235
2.1625 0.1667 0.0278
2.1675 0.1683 0.0277
2.1725 0.1098 0.0215
2.1775 0.1636 0.0269
2.1825 0.1082 0.0221
2.1875 0.1186 0.0233
2.1925 0.0917 0.0205
2.1975 0.0777 0.0188
2.2025 0.1026 0.0209
2.2075 0.0884 0.0198
2.2125 0.0935 0.0204
2.2175 0.0411 0.0137
2.2225 0.0593 0.0164
2.2275 0.0184 0.0092
2.2325 0.0219 0.0098
2.2375 0.0131 0.0075
2.2425 0.0404 0.0135
2.2475 0.0136 0.0078
2.2525 0.0182 0.0091
2.2575 0.0139 0.0080
2.2625 0.0184 0.0092
2.2675 0.0126 0.0073
2.2725 0.0000 1.0000
2.2775 0.0044 0.0044
2.2825 0.0046 0.0046
2.2875 0.0092 0.0065
2.2925 0.0046 0.0046
2.2975 0.0125 0.0072
2.3025 0.0400 0.0133
2.3075 0.0089 0.0063
2.3125 0.0000 1.0000
2.3175 0.0139 0.0080
2.3225 0.0185 0.0093
2.3275 0.0085 0.0060
2.3325 0.0131 0.0076
2.3375 0.0133 0.0077
2.3425 0.0137 0.0079
2.3475 0.0000 1.0000
2.3525 0.0000 1.0000
2.3575 0.0000 1.0000
2.3625 0.0043 0.0043
2.3675 0.0046 0.0046
2.3725 0.0045 0.0045
2.3775 0.0228 0.0102
2.3825 0.0046 0.0046
2.3875 0.0045 0.0045
2.3925 0.0042 0.0042
2.3975 0.0044 0.0044
2.4025 0.0000 1.0000
2.4075 0.0046 0.0046
2.4125 0.0000 1.0000
2.4175 0.0092 0.0065
2.4225 0.0042 0.0042
2.4275 0.0089 0.0063
2.4325 0.0181 0.0090
2.4375 0.0180 0.0090
2.4425 0.0139 0.0080
2.4475 0.0092 0.0065
2.4525 0.0083 0.0059
2.4575 0.0442 0.0140
2.4625 0.0489 0.0148
2.4675 0.0092 0.0065
2.4725 0.0046 0.0046
2.4775 0.0046 0.0046
2.4825 0.0084 0.0059
2.4875 0.0218 0.0098
2.4925 0.0225 0.0100
2.4975 0.0229 0.0102
2.5025 0.0138 0.0080
2.5075 0.0092 0.0065
2.5125 0.0084 0.0059
2.5175 0.0044 0.0044
2.5225 0.0045 0.0045
2.5275 0.0000 1.0000
2.5325 0.0092 0.0066
2.5375 0.0227 0.0102
2.5425 0.0082 0.0058
2.5475 0.0044 0.0044
2.5525 0.0045 0.0045
2.5575 0.0000 1.0000
2.5625 0.0000 1.0000
2.5675 0.0046 0.0046
2.5725 0.0041 0.0041
2.5775 0.0044 0.0044
2.5825 0.0000 1.0000
2.5875 0.0000 1.0000
2.5925 0.0089 0.0063
2.5975 0.0000 1.0000
2.6025 0.0000 1.0000
2.6075 0.0000 1.0000
2.6125 0.0000 1.0000
2.6175 0.0180 0.0090
2.6225 0.0275 0.0112
2.6275 0.0131 0.0076
2.6325 0.0127 0.0074
2.6375 0.0178 0.0089
2.6425 0.0000 1.0000
2.6475 0.0045 0.0045
2.6525 0.0000 1.0000
2.6575 0.0042 0.0042
2.6625 0.0000 1.0000
2.6675 0.0000 1.0000
2.6725 0.0224 0.0100
2.6775 0.0321 0.0121
2.6825 0.0137 0.0079
2.6875 0.0000 1.0000
2.6925 0.0000 1.0000
2.6975 0.0000 1.0000
0.0000 0.0000 1.0000
0.0000 0.0000 1.0000
0.0000 0.0000 1.0000
0.0000 0.0000 1.0000
0.0000 0.0000 1.0000
0.0000 0.0000 1.0000
0.0000 0.0000 1.0000
0.0000 0.0000 1.0000
0.0000 0.0000 1.0000
0.0000 0.0000 1.0000
0.0000 0.0000 1.0000
0.0000 0.0000 1.0000
0.0000 0.0000 1.0000
0.0000 0.0000 1.0000
