1.0725 0.8158 0.1549
1.0775 0.6585 0.0984
1.0825 0.9505 0.0947
1.0875 0.9325 0.0885
1.0925 0.9161 0.0833
1.0975 0.9848 0.0836
1.1025 0.9770 0.0737
1.1075 0.8605 0.0707
1.1125 0.9829 0.0731
1.1175 0.9990 0.0703
1.1225 1.0752 0.0699
1.1275 0.9624 0.0664
1.1325 0.9187 0.0642
1.1375 1.0251 0.0651
1.1425 1.0008 0.0647
1.1475 1.0211 0.0666
1.1525 0.9908 0.0658
1.1575 1.1404 0.0677
1.1625 0.9784 0.0644
1.1675 0.9661 0.0644
1.1725 1.1016 0.0685
1.1775 0.9724 0.0625
1.1825 1.0786 0.0683
1.1875 1.2276 0.0724
1.1925 1.1456 0.0689
1.1975 1.1719 0.0693
1.2025 1.2736 0.0732
1.2075 1.1478 0.0705
1.2125 1.1596 0.0688
1.2175 1.3287 0.0733
1.2225 1.2924 0.0745
1.2275 1.2333 0.0715
1.2325 1.2565 0.0721
1.2375 1.3081 0.0732
1.2425 1.3038 0.0732
1.2475 1.2157 0.0724
1.2525 1.3250 0.0734
1.2575 1.2680 0.0714
1.2625 1.3313 0.0748
1.2675 1.2912 0.0744
1.2725 1.2312 0.0707
1.2775 1.3455 0.0744
1.2825 1.3736 0.0765
1.2875 1.4361 0.0778
1.2925 1.4863 0.0795
1.2975 1.4239 0.0750
1.3025 1.3949 0.0766
1.3075 1.4104 0.0770
1.3125 1.5364 0.0812
1.3175 1.4904 0.0768
1.3225 1.4600 0.0782
1.3275 1.5220 0.0805
1.3325 1.6990 0.0854
1.3375 1.6014 0.0802
1.3425 1.5337 0.0804
1.3475 1.6588 0.0830
1.3525 1.4030 0.0781
1.3575 1.6014 0.0812
1.3625 1.7694 0.0855
1.3675 1.6214 0.0827
1.3725 1.6801 0.0842
1.3775 1.7631 0.0874
1.3825 1.7418 0.0840
1.3875 1.7887 0.0869
1.3925 1.8019 0.0872
1.3975 1.7103 0.0862
1.4025 1.7082 0.0844
1.4075 2.0295 0.0920
1.4125 1.8579 0.0884
1.4175 1.6560 0.0850
1.4225 1.9267 0.0915
1.4275 1.7349 0.0842
1.4325 1.7707 0.0861
1.4375 1.8637 0.0891
1.4425 1.9095 0.0913
1.4475 1.8741 0.0886
1.4525 1.8243 0.0874
1.4575 1.8431 0.0884
1.4625 1.8322 0.0891
1.4675 1.9091 0.0913
1.4725 1.8751 0.0882
1.4775 1.7056 0.0848
1.4825 1.8636 0.0892
1.4875 1.6193 0.0834
1.4925 1.6260 0.0846
1.4975 1.7900 0.0862
1.5025 1.7393 0.0855
1.5075 1.7547 0.0875
1.5125 1.6279 0.0839
1.5175 1.7120 0.0870
1.5225 1.6261 0.0810
1.5275 1.7500 0.0861
1.5325 1.5481 0.0828
1.5375 1.5790 0.0838
1.5425 1.6183 0.0846
1.5475 1.4924 0.0771
1.5525 1.5779 0.0826
1.5575 1.5642 0.0826
1.5625 1.6322 0.0841
1.5675 1.5380 0.0829
1.5725 1.5487 0.0797
1.5775 1.5852 0.0827
1.5825 1.6255 0.0841
1.5875 1.5231 0.0816
1.5925 1.4530 0.0807
1.5975 1.5511 0.0796
1.6025 1.4500 0.0786
1.6075 1.5486 0.0828
1.6125 1.6091 0.0846
1.6175 1.4265 0.0800
1.6225 1.4530 0.0773
1.6275 1.3565 0.0766
1.6325 1.3237 0.0755
1.6375 1.3643 0.0782
1.6425 1.3697 0.0780
1.6475 1.2882 0.0733
1.6525 1.2757 0.0740
1.6575 1.2349 0.0731
1.6625 1.2692 0.0754
1.6675 1.2630 0.0749
1.6725 1.2340 0.0725
1.6775 1.2612 0.0734
1.6825 1.1665 0.0714
1.6875 1.2153 0.0738
1.6925 1.2266 0.0737
1.6975 1.1532 0.0719
1.7025 1.1823 0.0699
1.7075 1.0697 0.0679
1.7125 1.0133 0.0671
1.7175 0.9513 0.0646
1.7225 1.0638 0.0694
1.7275 1.0386 0.0662
1.7325 0.9995 0.0658
1.7375 1.0444 0.0678
1.7425 1.1661 0.0723
1.7475 0.9738 0.0659
1.7525 0.9773 0.0668
1.7575 0.8733 0.0598
1.7625 0.8269 0.0598
1.7675 0.9600 0.0653
1.7725 0.8830 0.0629
1.7775 0.9184 0.0648
1.7825 0.7519 0.0567
1.7875 0.7854 0.0581
1.7925 0.8392 0.0605
1.7975 0.7487 0.0577
1.8025 0.6829 0.0556
1.8075 0.6828 0.0558
1.8125 0.6920 0.0535
1.8175 0.6923 0.0552
1.8225 0.5943 0.0512
1.8275 0.6076 0.0523
1.8325 0.5974 0.0520
1.8375 0.6617 0.0550
1.8425 0.6256 0.0507
1.8475 0.5436 0.0490
1.8525 0.5225 0.0483
1.8575 0.5342 0.0489
1.8625 0.5003 0.0477
1.8675 0.5697 0.0498
1.8725 0.5632 0.0494
1.8775 0.5865 0.0508
1.8825 0.5425 0.0491
1.8875 0.4798 0.0466
1.8925 0.4936 0.0475
1.8975 0.4442 0.0436
1.9025 0.4854 0.0460
1.9075 0.3898 0.0415
1.9125 0.4622 0.0455
1.9175 0.4312 0.0440
1.9225 0.4615 0.0459
1.9275 0.3678 0.0399
1.9325 0.3938 0.0410
1.9375 0.4166 0.0434
1.9425 0.3547 0.0399
1.9475 0.3672 0.0410
1.9525 0.3659 0.0409
1.9575 0.3477 0.0381
1.9625 0.4165 0.0429
1.9675 0.4214 0.0430
1.9725 0.3169 0.0381
1.9775 0.2961 0.0367
1.9825 0.3320 0.0391
1.9875 0.3209 0.0368
1.9925 0.2787 0.0348
1.9975 0.2388 0.0328
2.0025 0.3082 0.0373
2.0075 0.2503 0.0337
2.0125 0.2959 0.0367
2.0175 0.3122 0.0365
2.0225 0.2866 0.0355
2.0275 0.2717 0.0347
2.0325 0.2489 0.0339
2.0375 0.2841 0.0358
2.0425 0.2636 0.0346
2.0475 0.2773 0.0346
2.0525 0.2947 0.0357
2.0575 0.2180 0.0314
2.0625 0.1890 0.0292
2.0675 0.2840 0.0358
2.0725 0.2493 0.0341
2.0775 0.1937 0.0292
2.0825 0.1706 0.0270
2.0875 0.1507 0.0259
2.0925 0.1220 0.0234
2.0975 0.2017 0.0304
2.1025 0.1735 0.0281
2.1075 0.2171 0.0313
2.1125 0.1694 0.0268
2.1175 0.1233 0.0233
2.1225 0.1818 0.0287
2.1275 0.1771 0.0284
2.1325 0.1807 0.0289
2.1375 0.1563 0.0268
2.1425 0.1458 0.0247
2.1475 0.1227 0.0232
2.1525 0.1483 0.0258
2.1575 0.1013 0.0216
2.1625 0.1251 0.0241
2.1675 0.1591 0.0269
2.1725 0.1013 0.0207
2.1775 0.1059 0.0216
2.1825 0.0946 0.0206
2.1875 0.1096 0.0224
2.1925 0.0826 0.0195
2.1975 0.1187 0.0233
2.2025 0.0642 0.0166
2.2075 0.0575 0.0160
2.2125 0.0400 0.0133
2.2175 0.0456 0.0144
2.2225 0.0411 0.0137
2.2275 0.0185 0.0092
2.2325 0.0176 0.0088
2.2375 0.0174 0.0087
2.2425 0.0135 0.0078
2.2475 0.0181 0.0090
2.2525 0.0091 0.0064
2.2575 0.0185 0.0092
2.2625 0.0230 0.0103
2.2675 0.0084 0.0059
2.2725 0.0044 0.0044
2.2775 0.0089 0.0063
2.2825 0.0046 0.0046
2.2875 0.0092 0.0065
2.2925 0.0000 1.0000
2.2975 0.0042 0.0042
2.3025 0.0089 0.0063
2.3075 0.0000 1.0000
2.3125 0.0318 0.0120
2.3175 0.0046 0.0046
2.3225 0.0140 0.0081
2.3275 0.0297 0.0113
2.3325 0.0175 0.0088
2.3375 0.0134 0.0077
2.3425 0.0046 0.0046
2.3475 0.0000 1.0000
2.3525 0.0046 0.0046
2.3575 0.0000 1.0000
2.3625 0.0085 0.0060
2.3675 0.0046 0.0046
2.3725 0.0000 1.0000
2.3775 0.0000 1.0000
2.3825 0.0046 0.0046
2.3875 0.0090 0.0064
2.3925 0.0127 0.0073
2.3975 0.0044 0.0044
2.4025 0.0135 0.0078
2.4075 0.0272 0.0111
2.4125 0.0229 0.0103
2.4175 0.0046 0.0046
2.4225 0.0000 1.0000
2.4275 0.0312 0.0118
2.4325 0.0406 0.0136
2.4375 0.0180 0.0090
2.4425 0.0278 0.0114
2.4475 0.0184 0.0092
2.4525 0.0289 0.0110
2.4575 0.0000 1.0000
2.4625 0.0045 0.0045
2.4675 0.0185 0.0092
2.4725 0.0136 0.0079
2.4775 0.0092 0.0065
2.4825 0.0042 0.0042
2.4875 0.0000 1.0000
2.4925 0.0044 0.0045
2.4975 0.0000 1.0000
2.5025 0.0046 0.0046
2.5075 0.0000 1.0000
2.5125 0.0042 0.0042
2.5175 0.0000 1.0000
2.5225 0.0045 0.0045
2.5275 0.0089 0.0063
2.5325 0.0093 0.0066
2.5375 0.0092 0.0065
2.5425 0.0082 0.0058
2.5475 0.0400 0.0133
2.5525 0.0313 0.0118
2.5575 0.0091 0.0064
2.5625 0.0137 0.0079
2.5675 0.0046 0.0046
2.5725 0.0124 0.0072
2.5775 0.0177 0.0088
2.5825 0.0135 0.0078
2.5875 0.0136 0.0079
2.5925 0.0089 0.0063
2.5975 0.0046 0.0047
2.6025 0.0041 0.0041
2.6075 0.0045 0.0045
2.6125 0.0090 0.0064
2.6175 0.0000 1.0000
2.6225 0.0272 0.0111
2.6275 0.0177 0.0088
2.6325 0.0000 1.0000
2.6375 0.0000 1.0000
2.6425 0.0045 0.0045
2.6475 0.0045 0.0045
2.6525 0.0000 1.0000
2.6575 0.0212 0.0095
2.6625 0.0043 0.0043
2.6675 0.0000 1.0000
2.6725 0.0134 0.0078
2.6775 0.0091 0.0065
2.6825 0.0046 0.0046
2.6875 0.0000 1.0000
2.6925 0.0000 1.0000
2.6975 0.0044 0.0044
0.0000 0.0000 1.0000
0.0000 0.0000 1.0000
0.0000 0.0000 1.0000
0.0000 0.0000 1.0000
0.0000 0.0000 1.0000
0.0000 0.0000 1.0000
0.0000 0.0000 1.0000
0.0000 0.0000 1.0000
0.0000 0.0000 1.0000
0.0000 0.0000 1.0000
0.0000 0.0000 1.0000
0.0000 0.0000 1.0000
0.0000 0.0000 1.0000
0.0000 0.0000 1.0000
