1.0725 0.4956 0.1207
1.0775 0.4829 0.0843
1.0825 0.5558 0.0724
1.0875 0.7043 0.0769
1.0925 0.5140 0.0624
1.0975 0.6727 0.0691
1.1025 0.6437 0.0598
1.1075 0.6277 0.0604
1.1125 0.6089 0.0575
1.1175 0.6037 0.0547
1.1225 0.6266 0.0534
1.1275 0.6555 0.0548
1.1325 0.6765 0.0551
1.1375 0.6607 0.0523
1.1425 0.7282 0.0552
1.1475 0.6742 0.0541
1.1525 0.7029 0.0554
1.1575 0.5859 0.0485
1.1625 0.6986 0.0544
1.1675 0.7214 0.0556
1.1725 0.8513 0.0602
1.1775 0.8361 0.0579
1.1825 0.9446 0.0639
1.1875 0.9279 0.0630
1.1925 0.9256 0.0620
1.1975 0.9022 0.0608
1.2025 0.8410 0.0594
1.2075 0.8704 0.0614
1.2125 0.7915 0.0568
1.2175 0.9232 0.0611
1.2225 0.8291 0.0597
1.2275 0.9800 0.0638
1.2325 1.0746 0.0666
1.2375 0.8859 0.0603
1.2425 0.9753 0.0634
1.2475 0.9960 0.0655
1.2525 0.9625 0.0625
1.2575 0.9836 0.0629
1.2625 0.9618 0.0636
1.2675 0.9175 0.0628
1.2725 1.0523 0.0654
1.2775 0.9919 0.0639
1.2825 0.9576 0.0638
1.2875 1.0008 0.0650
1.2925 1.0571 0.0671
1.2975 1.1031 0.0660
1.3025 1.1356 0.0691
1.3075 1.3639 0.0757
1.3125 1.7629 0.0870
1.3175 1.9397 0.0876
1.3225 2.4602 0.1015
1.3275 3.2067 0.1168
1.3325 3.5831 0.1240
1.3375 3.7928 0.1234
1.3425 3.5122 0.1217
1.3475 2.7670 0.1072
1.3525 2.1765 0.0973
1.3575 1.6126 0.0815
1.3625 1.5248 0.0794
1.3675 1.4561 0.0784
1.3725 1.3344 0.0750
1.3775 1.3379 0.0761
1.3825 1.3653 0.0743
1.3875 1.5527 0.0809
1.3925 1.6642 0.0838
1.3975 1.5447 0.0820
1.4025 1.6131 0.0820
1.4075 1.6041 0.0818
1.4125 1.5760 0.0814
1.4175 1.6595 0.0851
1.4225 1.8572 0.0899
1.4275 2.0537 0.0916
1.4325 3.6119 0.1229
1.4375 7.4811 0.1784
1.4425 9.9562 0.2085
1.4475 6.8402 0.1692
1.4525 3.4268 0.1197
1.4575 2.0883 0.0941
1.4625 1.7973 0.0882
1.4675 1.7125 0.0865
1.4725 1.7889 0.0862
1.4775 1.7515 0.0860
1.4825 1.5817 0.0822
1.4875 1.6065 0.0830
1.4925 1.5253 0.0820
1.4975 1.4824 0.0784
1.5025 1.4830 0.0789
1.5075 1.3631 0.0772
1.5125 1.5034 0.0807
1.5175 1.5883 0.0838
1.5225 1.6224 0.0809
1.5275 1.5550 0.0812
1.5325 1.5299 0.0823
1.5375 1.6678 0.0861
1.5425 1.4108 0.0790
1.5475 1.4806 0.0768
1.5525 1.5253 0.0813
1.5575 1.5992 0.0836
1.5625 1.7871 0.0880
1.5675 2.3645 0.1027
1.5725 2.6811 0.1048
1.5775 2.6498 0.1069
1.5825 2.2950 0.0999
1.5875 1.8597 0.0901
1.5925 1.6819 0.0868
1.5975 1.5823 0.0804
1.6025 1.5103 0.0802
1.6075 1.5225 0.0821
1.6125 1.4930 0.0815
1.6175 1.3455 0.0777
1.6225 1.3795 0.0753
1.6275 1.3162 0.0755
1.6325 1.2841 0.0744
1.6375 1.1310 0.0712
1.6425 1.1162 0.0704
1.6475 1.2176 0.0712
1.6525 1.0950 0.0686
1.6575 1.0748 0.0682
1.6625 1.1624 0.0722
1.6675 1.0934 0.0697
1.6725 1.1025 0.0685
1.6775 1.0814 0.0680
1.6825 1.0404 0.0674
1.6875 1.2551 0.0750
1.6925 1.3417 0.0771
1.6975 1.5126 0.0824
1.7025 1.5867 0.0810
1.7075 2.1598 0.0965
1.7125 3.1153 0.1177
1.7175 3.3736 0.1216
1.7225 3.5967 0.1276
1.7275 2.8146 0.1090
1.7325 2.0691 0.0946
1.7375 1.4848 0.0809
1.7425 1.4760 0.0814
1.7475 1.2859 0.0758
1.7525 1.1054 0.0710
1.7575 1.0736 0.0663
1.7625 1.0605 0.0678
1.7675 1.1030 0.0700
1.7725 0.8704 0.0625
1.7775 0.8633 0.0628
1.7825 0.8633 0.0607
1.7875 0.7300 0.0560
1.7925 0.7386 0.0568
1.7975 0.7083 0.0561
1.8025 0.6694 0.0550
1.8075 0.7296 0.0577
1.8125 0.7616 0.0561
1.8175 0.7792 0.0586
1.8225 0.7317 0.0568
1.8275 0.7473 0.0580
1.8325 0.6609 0.0547
1.8375 0.6660 0.0551
1.8425 0.6750 0.0527
1.8475 0.6245 0.0526
1.8525 0.5530 0.0497
1.8575 0.5746 0.0508
1.8625 0.5914 0.0518
1.8675 0.5264 0.0478
1.8725 0.6800 0.0543
1.8775 0.5287 0.0483
1.8825 0.5872 0.0511
1.8875 0.5798 0.0512
1.8925 0.5804 0.0515
1.8975 0.6793 0.0539
1.9025 0.5553 0.0492
1.9075 0.5047 0.0473
1.9125 0.5920 0.0515
1.9175 0.5301 0.0488
1.9225 0.5482 0.0500
1.9275 0.6104 0.0514
1.9325 0.5814 0.0498
1.9375 0.4985 0.0475
1.9425 0.4219 0.0435
1.9475 0.4546 0.0457
1.9525 0.4116 0.0434
1.9575 0.4314 0.0425
1.9625 0.3764 0.0408
1.9675 0.3553 0.0395
1.9725 0.4177 0.0438
1.9775 0.3915 0.0422
1.9825 0.4292 0.0445
1.9875 0.3463 0.0382
1.9925 0.3830 0.0408
1.9975 0.4101 0.0430
2.0025 0.3579 0.0402
2.0075 0.3866 0.0419
2.0125 0.3956 0.0424
2.0175 0.3975 0.0412
2.0225 0.4367 0.0439
2.0275 0.3822 0.0412
2.0325 0.4012 0.0430
2.0375 0.3607 0.0403
2.0425 0.3274 0.0386
2.0475 0.3551 0.0392
2.0525 0.3723 0.0401
2.0575 0.3038 0.0371
2.0625 0.3293 0.0385
2.0675 0.2978 0.0367
2.0725 0.2868 0.0365
2.0775 0.3299 0.0381
2.0825 0.2733 0.0342
2.0875 0.2352 0.0323
2.0925 0.2611 0.0343
2.0975 0.2335 0.0327
2.1025 0.2691 0.0351
2.1075 0.2710 0.0350
2.1125 0.2497 0.0325
2.1175 0.1627 0.0268
2.1225 0.1592 0.0269
2.1275 0.2133 0.0311
2.1325 0.1990 0.0304
2.1375 0.1841 0.0291
2.1425 0.1582 0.0257
2.1475 0.1537 0.0260
2.1525 0.1349 0.0247
2.1575 0.1243 0.0239
2.1625 0.1761 0.0285
2.1675 0.1634 0.0273
2.1725 0.1772 0.0273
2.1775 0.1372 0.0246
2.1825 0.1307 0.0243
2.1875 0.1416 0.0254
2.1925 0.0920 0.0205
2.1975 0.1094 0.0223
2.2025 0.0683 0.0171
2.2075 0.1106 0.0221
2.2125 0.1158 0.0227
2.2175 0.0731 0.0183
2.2225 0.0502 0.0151
2.2275 0.0462 0.0146
2.2325 0.0350 0.0124
2.2375 0.0217 0.0097
2.2425 0.0224 0.0100
2.2475 0.0180 0.0090
2.2525 0.0046 0.0046
2.2575 0.0046 0.0046
2.2625 0.0046 0.0046
2.2675 0.0084 0.0059
2.2725 0.0000 1.0000
2.2775 0.0044 0.0044
2.2825 0.0092 0.0065
2.2875 0.0046 0.0046
2.2925 0.0046 0.0046
2.2975 0.0168 0.0084
2.3025 0.0044 0.0044
2.3075 0.0000 1.0000
2.3125 0.0000 1.0000
2.3175 0.0139 0.0080
2.3225 0.0139 0.0080
2.3275 0.0127 0.0074
2.3325 0.0044 0.0044
2.3375 0.0176 0.0088
2.3425 0.0000 1.0000
2.3475 0.0185 0.0092
2.3525 0.0093 0.0065
2.3575 0.0000 1.0000
2.3625 0.0170 0.0085
2.3675 0.0091 0.0065
2.3725 0.0090 0.0064
2.3775 0.0045 0.0046
2.3825 0.0092 0.0065
2.3875 0.0090 0.0064
2.3925 0.0000 1.0000
2.3975 0.0044 0.0044
2.4025 0.0000 1.0000
2.4075 0.0045 0.0045
2.4125 0.0000 1.0000
2.4175 0.0046 0.0046
2.4225 0.0000 1.0000
2.4275 0.0000 1.0000
2.4325 0.0000 1.0000
2.4375 0.0045 0.0045
2.4425 0.0000 1.0000
2.4475 0.0000 1.0000
2.4525 0.0083 0.0059
2.4575 0.0000 1.0000
2.4625 0.0000 1.0000
2.4675 0.0046 0.0046
2.4725 0.0045 0.0046
2.4775 0.0000 1.0000
2.4825 0.0042 0.0042
2.4875 0.0131 0.0076
2.4925 0.0224 0.0100
2.4975 0.0365 0.0129
2.5025 0.0137 0.0079
2.5075 0.0000 1.0000
2.5125 0.0042 0.0042
2.5175 0.0088 0.0062
2.5225 0.0000 1.0000
2.5275 0.0045 0.0045
2.5325 0.0047 0.0047
2.5375 0.0046 0.0046
2.5425 0.0041 0.0041
2.5475 0.0044 0.0044
2.5525 0.0045 0.0045
2.5575 0.0228 0.0102
2.5625 0.0046 0.0046
2.5675 0.0046 0.0046
2.5725 0.0041 0.0041
2.5775 0.0176 0.0088
2.5825 0.0135 0.0078
2.5875 0.0092 0.0065
2.5925 0.0091 0.0064
2.5975 0.0186 0.0093
2.6025 0.0000 1.0000
2.6075 0.0045 0.0045
2.6125 0.0000 1.0000
2.6175 0.0181 0.0090
2.6225 0.0274 0.0112
2.6275 0.0132 0.0076
2.6325 0.0085 0.0060
2.6375 0.0044 0.0044
2.6425 0.0136 0.0078
2.6475 0.0000 1.0000
2.6525 0.0092 0.0065
2.6575 0.0085 0.0060
2.6625 0.0043 0.0043
2.6675 0.0045 0.0045
2.6725 0.0000 1.0000
2.6775 0.0000 1.0000
2.6825 0.0000 1.0000
2.6875 0.0164 0.0082
2.6925 0.0133 0.0077
2.6975 0.0133 0.0077
0.0000 0.0000 1.0000
0.0000 0.0000 1.0000
0.0000 0.0000 1.0000
0.0000 0.0000 1.0000
0.0000 0.0000 1.0000
0.0000 0.0000 1.0000
0.0000 0.0000 1.0000
0.0000 0.0000 1.0000
0.0000 0.0000 1.0000
0.0000 0.0000 1.0000
0.0000 0.0000 1.0000
0.0000 0.0000 1.0000
0.0000 0.0000 1.0000
0.0000 0.0000 1.0000
