1.0725 0.5832 0.1310
1.0775 0.5559 0.0904
1.0825 0.5739 0.0736
1.0875 0.6125 0.0717
1.0925 0.6056 0.0677
1.0975 0.5458 0.0622
1.1025 0.5329 0.0544
1.1075 0.5171 0.0548
1.1125 0.6081 0.0575
1.1175 0.6334 0.0560
1.1225 0.6540 0.0545
1.1275 0.6828 0.0560
1.1325 0.8382 0.0613
1.1375 0.6323 0.0511
1.1425 0.7410 0.0557
1.1475 0.7476 0.0570
1.1525 0.6723 0.0542
1.1575 0.7792 0.0559
1.1625 0.7584 0.0567
1.1675 0.7470 0.0566
1.1725 0.9482 0.0635
1.1775 0.8397 0.0581
1.1825 0.8751 0.0615
1.1875 0.9835 0.0648
1.1925 0.9256 0.0620
1.1975 0.9420 0.0621
1.2025 0.8821 0.0609
1.2075 0.8747 0.0615
1.2125 0.8242 0.0580
1.2175 0.8504 0.0587
1.2225 0.8461 0.0603
1.2275 0.9884 0.0640
1.2325 0.9255 0.0618
1.2375 0.8983 0.0607
1.2425 1.0781 0.0666
1.2475 1.0301 0.0666
1.2525 0.9878 0.0634
1.2575 0.9237 0.0609
1.2625 0.8526 0.0599
1.2675 1.0759 0.0680
1.2725 1.1258 0.0677
1.2775 1.0660 0.0662
1.2825 0.9361 0.0631
1.2875 1.1232 0.0688
1.2925 1.1205 0.0691
1.2975 1.1715 0.0680
1.3025 1.2842 0.0735
1.3075 1.4744 0.0787
1.3125 1.6517 0.0842
1.3175 2.2714 0.0948
1.3225 2.5613 0.1035
1.3275 3.4399 0.1210
1.3325 3.6858 0.1258
1.3375 3.6910 0.1218
1.3425 3.2129 0.1164
1.3475 2.7711 0.1072
1.3525 1.9126 0.0912
1.3575 1.6658 0.0828
1.3625 1.3716 0.0753
1.3675 1.3301 0.0749
1.3725 1.3891 0.0766
1.3775 1.4200 0.0784
1.3825 1.4499 0.0766
1.3875 1.4845 0.0791
1.3925 1.7557 0.0861
1.3975 1.5970 0.0833
1.4025 1.6748 0.0835
1.4075 1.5337 0.0799
1.4125 1.5424 0.0805
1.4175 1.5679 0.0827
1.4225 1.8133 0.0888
1.4275 2.4615 0.1002
1.4325 4.5195 0.1375
1.4375 8.4028 0.1891
1.4425 9.5652 0.2044
1.4475 5.9288 0.1575
1.4525 2.8502 0.1092
1.4575 2.0082 0.0922
1.4625 1.7583 0.0872
1.4675 1.8736 0.0905
1.4725 1.6678 0.0832
1.4775 1.6924 0.0845
1.4825 1.7183 0.0857
1.4875 1.3834 0.0771
1.4925 1.4804 0.0808
1.4975 1.3335 0.0744
1.5025 1.4200 0.0772
1.5075 1.5153 0.0813
1.5125 1.5507 0.0819
1.5175 1.6241 0.0848
1.5225 1.4963 0.0777
1.5275 1.6398 0.0834
1.5325 1.5480 0.0828
1.5375 1.5572 0.0832
1.5425 1.3704 0.0779
1.5475 1.4578 0.0762
1.5525 1.3792 0.0773
1.5575 1.5683 0.0828
1.5625 2.0387 0.0939
1.5675 2.2175 0.0995
1.5725 2.6554 0.1043
1.5775 2.4911 0.1036
1.5825 1.9549 0.0922
1.5875 1.8378 0.0896
1.5925 1.6354 0.0856
1.5975 1.5302 0.0790
1.6025 1.6079 0.0827
1.6075 1.4200 0.0793
1.6125 1.3774 0.0782
1.6175 1.3682 0.0783
1.6225 1.4279 0.0767
1.6275 1.2036 0.0722
1.6325 1.2931 0.0747
1.6375 1.1802 0.0727
1.6425 1.2760 0.0753
1.6475 1.2256 0.0715
1.6525 1.1256 0.0695
1.6575 1.1994 0.0721
1.6625 1.1846 0.0729
1.6675 1.1647 0.0719
1.6725 1.0175 0.0658
1.6775 1.2354 0.0727
1.6825 1.2233 0.0731
1.6875 1.1792 0.0727
1.6925 1.3001 0.0758
1.6975 1.6245 0.0853
1.7025 1.9508 0.0898
1.7075 2.5521 0.1049
1.7125 3.1719 0.1187
1.7175 3.7540 0.1283
1.7225 3.1757 0.1199
1.7275 2.4738 0.1022
1.7325 1.8270 0.0889
1.7375 1.4051 0.0787
1.7425 1.3543 0.0779
1.7475 1.2018 0.0732
1.7525 1.1189 0.0715
1.7575 1.0330 0.0651
1.7625 1.0215 0.0665
1.7675 0.8710 0.0622
1.7725 0.9099 0.0639
1.7775 0.8813 0.0634
1.7825 0.8169 0.0591
1.7875 0.8505 0.0604
1.7925 0.7119 0.0558
1.7975 0.7988 0.0596
1.8025 0.7329 0.0576
1.8075 0.7062 0.0568
1.8125 0.7452 0.0555
1.8175 0.7538 0.0576
1.8225 0.6481 0.0534
1.8275 0.6663 0.0548
1.8325 0.6792 0.0554
1.8375 0.6940 0.0563
1.8425 0.6836 0.0530
1.8475 0.5217 0.0480
1.8525 0.7140 0.0565
1.8575 0.4891 0.0468
1.8625 0.5867 0.0516
1.8675 0.5615 0.0494
1.8725 0.6320 0.0523
1.8775 0.5288 0.0483
1.8825 0.6318 0.0530
1.8875 0.4573 0.0455
1.8925 0.6539 0.0546
1.8975 0.5643 0.0491
1.9025 0.5244 0.0479
1.9075 0.6205 0.0524
1.9125 0.6591 0.0544
1.9175 0.4986 0.0473
1.9225 0.5663 0.0509
1.9275 0.4635 0.0448
1.9325 0.4659 0.0446
1.9375 0.5527 0.0500
1.9425 0.4847 0.0466
1.9475 0.3585 0.0405
1.9525 0.4437 0.0450
1.9575 0.4020 0.0410
1.9625 0.3984 0.0420
1.9675 0.4125 0.0425
1.9725 0.3956 0.0426
1.9775 0.5098 0.0481
1.9825 0.3459 0.0399
1.9875 0.3125 0.0363
1.9925 0.3831 0.0408
1.9975 0.4146 0.0432
2.0025 0.3669 0.0407
2.0075 0.3550 0.0402
2.0125 0.3773 0.0414
2.0175 0.4702 0.0448
2.0225 0.3968 0.0418
2.0275 0.3556 0.0398
2.0325 0.2810 0.0360
2.0375 0.3336 0.0388
2.0425 0.3866 0.0419
2.0475 0.3377 0.0382
2.0525 0.3205 0.0372
2.0575 0.2767 0.0354
2.0625 0.3515 0.0398
2.0675 0.3021 0.0370
2.0725 0.3194 0.0385
2.0775 0.2241 0.0314
2.0825 0.3590 0.0392
2.0875 0.2664 0.0344
2.0925 0.2158 0.0312
2.0975 0.2745 0.0355
2.1025 0.2100 0.0310
2.1075 0.3212 0.0381
2.1125 0.2205 0.0306
2.1175 0.2511 0.0333
2.1225 0.1911 0.0295
2.1275 0.1409 0.0253
2.1325 0.1897 0.0296
2.1375 0.1754 0.0284
2.1425 0.1875 0.0279
2.1475 0.1799 0.0281
2.1525 0.1486 0.0259
2.1575 0.1613 0.0273
2.1625 0.1805 0.0289
2.1675 0.1591 0.0269
2.1725 0.1308 0.0235
2.1775 0.1284 0.0238
2.1825 0.0900 0.0201
2.1875 0.1051 0.0219
2.1925 0.1101 0.0225
2.1975 0.1278 0.0242
2.2025 0.0940 0.0200
2.2075 0.0929 0.0203
2.2125 0.0801 0.0189
2.2175 0.0639 0.0171
2.2225 0.0732 0.0183
2.2275 0.0323 0.0122
2.2325 0.0263 0.0107
2.2375 0.0260 0.0106
2.2425 0.0089 0.0063
2.2475 0.0180 0.0090
2.2525 0.0046 0.0046
2.2575 0.0046 0.0046
2.2625 0.0046 0.0046
2.2675 0.0168 0.0084
2.2725 0.0088 0.0063
2.2775 0.0045 0.0045
2.2825 0.0231 0.0103
2.2875 0.0092 0.0065
2.2925 0.0000 1.0000
2.2975 0.0083 0.0059
2.3025 0.0089 0.0063
2.3075 0.0044 0.0044
2.3125 0.0091 0.0064
2.3175 0.0186 0.0093
2.3225 0.0046 0.0046
2.3275 0.0000 1.0000
2.3325 0.0044 0.0044
2.3375 0.0087 0.0062
2.3425 0.0000 1.0000
2.3475 0.0000 1.0000
2.3525 0.0000 1.0000
2.3575 0.0000 1.0000
2.3625 0.0000 1.0000
2.3675 0.0137 0.0079
2.3725 0.0135 0.0078
2.3775 0.0274 0.0112
2.3825 0.0046 0.0046
2.3875 0.0090 0.0064
2.3925 0.0042 0.0042
2.3975 0.0133 0.0077
2.4025 0.0180 0.0090
2.4075 0.0364 0.0129
2.4125 0.0371 0.0131
2.4175 0.0183 0.0092
2.4225 0.0083 0.0059
2.4275 0.0178 0.0089
2.4325 0.0091 0.0064
2.4375 0.0045 0.0045
2.4425 0.0093 0.0066
2.4475 0.0046 0.0046
2.4525 0.0166 0.0083
2.4575 0.0133 0.0077
2.4625 0.0223 0.0100
2.4675 0.0046 0.0046
2.4725 0.0091 0.0065
2.4775 0.0046 0.0046
2.4825 0.0042 0.0042
2.4875 0.0087 0.0062
2.4925 0.0090 0.0064
2.4975 0.0091 0.0064
2.5025 0.0046 0.0046
2.5075 0.0139 0.0080
2.5125 0.0084 0.0059
2.5175 0.0088 0.0062
2.5225 0.0000 1.0000
2.5275 0.0089 0.0063
2.5325 0.0047 0.0047
2.5375 0.0000 1.0000
2.5425 0.0000 1.0000
2.5475 0.0089 0.0063
2.5525 0.0089 0.0063
2.5575 0.0045 0.0046
2.5625 0.0000 1.0000
2.5675 0.0046 0.0046
2.5725 0.0082 0.0058
2.5775 0.0044 0.0044
2.5825 0.0045 0.0045
2.5875 0.0046 0.0046
2.5925 0.0045 0.0045
2.5975 0.0093 0.0066
2.6025 0.0080 0.0057
2.6075 0.0000 1.0000
2.6125 0.0000 1.0000
2.6175 0.0136 0.0078
2.6225 0.0000 1.0000
2.6275 0.0000 1.0000
2.6325 0.0171 0.0085
2.6375 0.0266 0.0109
2.6425 0.0227 0.0101
2.6475 0.0315 0.0119
2.6525 0.0185 0.0092
2.6575 0.0169 0.0085
2.6625 0.0258 0.0105
2.6675 0.0405 0.0135
2.6725 0.0313 0.0119
2.6775 0.0275 0.0112
2.6825 0.0137 0.0079
2.6875 0.0041 0.0041
2.6925 0.0088 0.0062
2.6975 0.0089 0.0063
0.0000 0.0000 1.0000
0.0000 0.0000 1.0000
0.0000 0.0000 1.0000
0.0000 0.0000 1.0000
0.0000 0.0000 1.0000
0.0000 0.0000 1.0000
0.0000 0.0000 1.0000
0.0000 0.0000 1.0000
0.0000 0.0000 1.0000
0.0000 0.0000 1.0000
0.0000 0.0000 1.0000
0.0000 0.0000 1.0000
0.0000 0.0000 1.0000
0.0000 0.0000 1.0000
