1.0725 2.0672 0.2466
1.0775 1.7831 0.1619
1.0825 2.0258 0.1382
1.0875 1.9458 0.1279
1.0925 1.9222 0.1207
1.0975 2.0668 0.1211
1.1025 1.9936 0.1052
1.1075 1.9990 0.1078
1.1125 1.9988 0.1042
1.1175 1.9101 0.0972
1.1225 1.9611 0.0944
1.1275 1.9206 0.0939
1.1325 2.1383 0.0979
1.1375 2.1333 0.0939
1.1425 2.2231 0.0964
1.1475 1.9258 0.0915
1.1525 2.2444 0.0990
1.1575 2.4157 0.0985
1.1625 2.3299 0.0994
1.1675 2.2415 0.0981
1.1725 2.2384 0.0976
1.1775 2.2224 0.0945
1.1825 2.4515 0.1030
1.1875 2.3564 0.1004
1.1925 2.3538 0.0988
1.1975 2.3168 0.0974
1.2025 2.4546 0.1016
1.2075 2.4024 0.1020
1.2125 2.8693 0.1082
1.2175 2.5310 0.1012
1.2225 2.7310 0.1083
1.2275 2.5233 0.1023
1.2325 2.5875 0.1034
1.2375 2.6896 0.1050
1.2425 2.8478 0.1083
1.2475 2.7028 0.1079
1.2525 2.6366 0.1035
1.2575 3.0823 0.1113
1.2625 2.9730 0.1118
1.2675 2.7705 0.1090
1.2725 2.8242 0.1071
1.2775 3.1066 0.1131
1.2825 3.0726 0.1143
1.2875 2.7036 0.1068
1.2925 2.9779 0.1126
1.2975 3.0437 0.1097
1.3025 2.9974 0.1122
1.3075 3.2809 0.1174
1.3125 3.3248 0.1195
1.3175 3.0435 0.1097
1.3225 3.1877 0.1155
1.3275 3.1684 0.1161
1.3325 3.2903 0.1188
1.3375 3.4336 0.1174
1.3425 3.1868 0.1160
1.3475 3.2514 0.1162
1.3525 3.5907 0.1249
1.3575 3.5096 0.1202
1.3625 3.5783 0.1216
1.3675 3.7073 0.1251
1.3725 3.4274 0.1203
1.3775 3.3739 0.1209
1.3825 3.7062 0.1225
1.3875 3.7041 0.1250
1.3925 3.6636 0.1243
1.3975 3.6458 0.1259
1.4025 3.8433 0.1265
1.4075 3.7331 0.1247
1.4125 3.7915 0.1262
1.4175 3.7835 0.1285
1.4225 3.8106 0.1287
1.4275 3.7078 0.1230
1.4325 3.9470 0.1285
1.4375 3.6691 0.1250
1.4425 3.9959 0.1321
1.4475 3.7390 0.1251
1.4525 3.7799 0.1258
1.4575 4.0617 0.1312
1.4625 3.8110 0.1284
1.4675 3.7703 0.1283
1.4725 3.8465 0.1263
1.4775 3.8116 0.1268
1.4825 3.7315 0.1263
1.4875 3.7214 0.1264
1.4925 3.7413 0.1284
1.4975 4.0072 0.1289
1.5025 3.8233 0.1267
1.5075 3.8252 0.1292
1.5125 3.5681 0.1243
1.5175 3.6758 0.1275
1.5225 3.7600 0.1231
1.5275 3.5848 0.1232
1.5325 3.7683 0.1291
1.5375 3.6695 0.1277
1.5425 3.5037 0.1245
1.5475 3.5037 0.1181
1.5525 3.5489 0.1239
1.5575 3.4619 0.1230
1.5625 3.3365 0.1202
1.5675 3.6587 0.1278
1.5725 3.3108 0.1165
1.5775 3.2750 0.1188
1.5825 3.1589 0.1172
1.5875 3.1085 0.1165
1.5925 3.1917 0.1196
1.5975 3.2393 0.1150
1.6025 3.2208 0.1171
1.6075 2.8809 0.1129
1.6125 3.0086 0.1156
1.6175 3.0994 0.1179
1.6225 2.9515 0.1102
1.6275 3.0224 0.1144
1.6325 2.9834 0.1134
1.6375 2.8086 0.1122
1.6425 2.8766 0.1131
1.6475 2.9457 0.1108
1.6525 2.6071 0.1058
1.6575 2.8942 0.1119
1.6625 2.6300 0.1086
1.6675 2.7119 0.1098
1.6725 2.4779 0.1027
1.6775 2.5821 0.1050
1.6825 2.5725 0.1060
1.6875 2.5922 0.1078
1.6925 2.5537 0.1063
1.6975 2.2701 0.1009
1.7025 2.5262 0.1022
1.7075 2.2937 0.0994
1.7125 2.2580 0.1002
1.7175 2.2108 0.0985
1.7225 2.1183 0.0979
1.7275 2.1483 0.0952
1.7325 1.9688 0.0923
1.7375 1.8677 0.0907
1.7425 1.8023 0.0899
1.7475 1.9511 0.0933
1.7525 1.9727 0.0949
1.7575 1.7877 0.0856
1.7625 1.8619 0.0898
1.7675 1.7199 0.0874
1.7725 1.7270 0.0880
1.7775 1.7630 0.0897
1.7825 1.7567 0.0866
1.7875 1.6793 0.0849
1.7925 1.6614 0.0852
1.7975 1.5563 0.0832
1.8025 1.5248 0.0831
1.8075 1.3750 0.0792
1.8125 1.6181 0.0818
1.8175 1.5115 0.0816
1.8225 1.3532 0.0772
1.8275 1.4541 0.0809
1.8325 1.4724 0.0816
1.8375 1.3825 0.0795
1.8425 1.3390 0.0742
1.8475 1.1901 0.0726
1.8525 1.2902 0.0759
1.8575 1.2337 0.0744
1.8625 1.1143 0.0712
1.8675 1.1481 0.0707
1.8725 1.1394 0.0702
1.8775 1.1950 0.0726
1.8825 1.0943 0.0697
1.8875 1.0729 0.0697
1.8925 1.0693 0.0699
1.8975 1.0688 0.0676
1.9025 0.9881 0.0657
1.9075 0.9662 0.0654
1.9125 0.8973 0.0634
1.9175 0.9339 0.0647
1.9225 0.8001 0.0604
1.9275 0.9448 0.0640
1.9325 0.8901 0.0617
1.9375 0.8336 0.0614
1.9425 0.8262 0.0609
1.9475 0.9268 0.0652
1.9525 0.7824 0.0598
1.9575 0.8171 0.0585
1.9625 0.8060 0.0597
1.9675 0.8254 0.0602
1.9725 0.8084 0.0609
1.9775 0.7055 0.0566
1.9825 0.6462 0.0546
1.9875 0.7476 0.0562
1.9925 0.5660 0.0496
1.9975 0.6678 0.0548
2.0025 0.5708 0.0508
2.0075 0.6689 0.0551
2.0125 0.6504 0.0544
2.0175 0.7049 0.0549
2.0225 0.6166 0.0521
2.0275 0.4537 0.0449
2.0325 0.4519 0.0456
2.0375 0.4555 0.0453
2.0425 0.4775 0.0466
2.0475 0.5538 0.0490
2.0525 0.4291 0.0431
2.0575 0.5307 0.0490
2.0625 0.4635 0.0457
2.0675 0.4462 0.0449
2.0725 0.4302 0.0447
2.0775 0.3301 0.0381
2.0825 0.4055 0.0416
2.0875 0.4932 0.0468
2.0925 0.4820 0.0466
2.0975 0.4903 0.0474
2.1025 0.4197 0.0438
2.1075 0.4161 0.0434
2.1125 0.4360 0.0430
2.1175 0.3610 0.0399
2.1225 0.3770 0.0414
2.1275 0.3224 0.0383
2.1325 0.3473 0.0401
2.1375 0.4149 0.0437
2.1425 0.3249 0.0368
2.1475 0.3157 0.0372
2.1525 0.3241 0.0382
2.1575 0.3040 0.0374
2.1625 0.2594 0.0347
2.1675 0.2862 0.0361
2.1725 0.2321 0.0313
2.1775 0.2656 0.0343
2.1825 0.2209 0.0315
2.1875 0.3013 0.0371
2.1925 0.2112 0.0311
2.1975 0.1962 0.0299
2.2025 0.2179 0.0305
2.2075 0.0885 0.0198
2.2125 0.1556 0.0263
2.2175 0.1143 0.0228
2.2225 0.1005 0.0214
2.2275 0.0506 0.0153
2.2325 0.0570 0.0158
2.2375 0.0740 0.0179
2.2425 0.0449 0.0142
2.2475 0.0497 0.0150
2.2525 0.0545 0.0157
2.2575 0.0368 0.0130
2.2625 0.0184 0.0092
2.2675 0.0168 0.0084
2.2725 0.0310 0.0117
2.2775 0.0134 0.0077
2.2825 0.0184 0.0092
2.2875 0.0000 1.0000
2.2925 0.0000 1.0000
2.2975 0.0126 0.0072
2.3025 0.0133 0.0077
2.3075 0.0178 0.0089
2.3125 0.0409 0.0136
2.3175 0.0278 0.0113
2.3225 0.0186 0.0093
2.3275 0.0298 0.0113
2.3325 0.0261 0.0107
2.3375 0.0528 0.0153
2.3425 0.0317 0.0120
2.3475 0.0185 0.0092
2.3525 0.0139 0.0080
2.3575 0.0130 0.0075
2.3625 0.0298 0.0113
2.3675 0.0229 0.0102
2.3725 0.0090 0.0064
2.3775 0.0091 0.0064
2.3825 0.0093 0.0066
2.3875 0.0090 0.0064
2.3925 0.0170 0.0085
2.3975 0.0133 0.0077
2.4025 0.0225 0.0101
2.4075 0.0182 0.0091
2.4125 0.0093 0.0065
2.4175 0.0322 0.0122
2.4225 0.0124 0.0072
2.4275 0.0134 0.0077
2.4325 0.0181 0.0090
2.4375 0.0000 1.0000
2.4425 0.0000 1.0000
2.4475 0.0138 0.0080
2.4525 0.0207 0.0093
2.4575 0.0354 0.0125
2.4625 0.0311 0.0118
2.4675 0.0276 0.0113
2.4725 0.0137 0.0079
2.4775 0.0092 0.0065
2.4825 0.0294 0.0111
2.4875 0.0087 0.0062
2.4925 0.0089 0.0063
2.4975 0.0046 0.0046
2.5025 0.0092 0.0065
2.5075 0.0046 0.0046
2.5125 0.0168 0.0084
2.5175 0.0306 0.0116
2.5225 0.0045 0.0045
2.5275 0.0133 0.0077
2.5325 0.0046 0.0047
2.5375 0.0137 0.0079
2.5425 0.0164 0.0082
2.5475 0.0133 0.0077
2.5525 0.0268 0.0109
2.5575 0.0457 0.0145
2.5625 0.0136 0.0079
2.5675 0.0092 0.0065
2.5725 0.0124 0.0072
2.5775 0.0220 0.0098
2.5825 0.0224 0.0100
2.5875 0.0046 0.0046
2.5925 0.0179 0.0090
2.5975 0.0094 0.0066
2.6025 0.0121 0.0070
2.6075 0.0134 0.0077
2.6125 0.0000 1.0000
2.6175 0.0000 1.0000
2.6225 0.0183 0.0091
2.6275 0.0000 1.0000
2.6325 0.0042 0.0042
2.6375 0.0311 0.0118
2.6425 0.0317 0.0120
2.6475 0.0583 0.0162
2.6525 0.0414 0.0138
2.6575 0.0550 0.0153
2.6625 0.0429 0.0136
2.6675 0.0135 0.0078
2.6725 0.0000 1.0000
2.6775 0.0183 0.0091
2.6825 0.0091 0.0064
2.6875 0.0082 0.0058
2.6925 0.0088 0.0062
2.6975 0.0089 0.0063
0.0000 0.0000 1.0000
0.0000 0.0000 1.0000
0.0000 0.0000 1.0000
0.0000 0.0000 1.0000
0.0000 0.0000 1.0000
0.0000 0.0000 1.0000
0.0000 0.0000 1.0000
0.0000 0.0000 1.0000
0.0000 0.0000 1.0000
0.0000 0.0000 1.0000
0.0000 0.0000 1.0000
0.0000 0.0000 1.0000
0.0000 0.0000 1.0000
0.0000 0.0000 1.0000
