1.0725 0.9015 0.1628
1.0775 0.7757 0.1068
1.0825 0.8284 0.0884
1.0875 0.8886 0.0864
1.0925 0.8167 0.0787
1.0975 0.9071 0.0802
1.1025 0.9936 0.0743
1.1075 0.8319 0.0695
1.1125 0.8535 0.0681
1.1175 0.8513 0.0649
1.1225 1.0398 0.0687
1.1275 0.9765 0.0669
1.1325 0.8875 0.0631
1.1375 0.9754 0.0635
1.1425 0.8540 0.0598
1.1475 0.9693 0.0649
1.1525 0.9253 0.0636
1.1575 0.9514 0.0618
1.1625 1.0921 0.0680
1.1675 1.0093 0.0658
1.1725 0.9864 0.0648
1.1775 0.9529 0.0619
1.1825 1.0225 0.0665
1.1875 0.9621 0.0641
1.1925 0.9753 0.0636
1.1975 1.1475 0.0686
1.2025 0.9958 0.0647
1.2075 1.1435 0.0704
1.2125 1.1760 0.0693
1.2175 1.0164 0.0641
1.2225 1.2973 0.0746
1.2275 1.1164 0.0681
1.2325 1.1076 0.0677
1.2375 1.1724 0.0693
1.2425 1.2015 0.0703
1.2475 1.1556 0.0706
1.2525 1.2354 0.0709
1.2575 1.1963 0.0693
1.2625 1.1632 0.0699
1.2675 1.2827 0.0742
1.2725 1.2074 0.0701
1.2775 1.2594 0.0720
1.2825 1.3742 0.0765
1.2875 1.4783 0.0790
1.2925 1.3338 0.0753
1.2975 1.3564 0.0732
1.3025 1.3445 0.0752
1.3075 1.3514 0.0754
1.3125 1.2905 0.0744
1.3175 1.4143 0.0748
1.3225 1.2930 0.0736
1.3275 1.3645 0.0762
1.3325 1.4501 0.0789
1.3375 1.4647 0.0767
1.3425 1.4588 0.0785
1.3475 1.4356 0.0772
1.3525 1.5124 0.0811
1.3575 1.5552 0.0800
1.3625 1.4349 0.0770
1.3675 1.5453 0.0807
1.3725 1.5924 0.0820
1.3775 1.6547 0.0846
1.3825 1.7456 0.0841
1.3875 1.5822 0.0817
1.3925 1.5786 0.0816
1.3975 1.6098 0.0837
1.4025 1.6753 0.0835
1.4075 1.6493 0.0829
1.4125 1.5801 0.0815
1.4175 1.7475 0.0874
1.4225 1.6001 0.0834
1.4275 1.6583 0.0823
1.4325 1.6364 0.0827
1.4375 1.7543 0.0864
1.4425 1.8039 0.0888
1.4475 1.7027 0.0844
1.4525 1.7531 0.0856
1.4575 1.6906 0.0846
1.4625 1.5376 0.0816
1.4675 1.5723 0.0829
1.4725 1.7219 0.0845
1.4775 1.7303 0.0854
1.4825 1.5806 0.0822
1.4875 1.6107 0.0831
1.4925 1.7270 0.0872
1.4975 1.6279 0.0822
1.5025 1.6598 0.0835
1.5075 1.4142 0.0786
1.5125 1.5206 0.0811
1.5175 1.7828 0.0888
1.5225 1.6140 0.0807
1.5275 1.7843 0.0870
1.5325 1.5212 0.0820
1.5375 1.5648 0.0834
1.5425 1.7161 0.0871
1.5475 1.5844 0.0795
1.5525 1.7425 0.0869
1.5575 1.4728 0.0802
1.5625 1.6149 0.0836
1.5675 1.4545 0.0806
1.5725 1.3399 0.0741
1.5775 1.4736 0.0797
1.5825 1.4948 0.0806
1.5875 1.4441 0.0794
1.5925 1.5385 0.0831
1.5975 1.3829 0.0751
1.6025 1.4423 0.0783
1.6075 1.4077 0.0789
1.6125 1.3870 0.0785
1.6175 1.3996 0.0792
1.6225 1.1931 0.0701
1.6275 1.3899 0.0776
1.6325 1.3403 0.0760
1.6375 1.3549 0.0779
1.6425 1.4053 0.0790
1.6475 1.3296 0.0744
1.6525 1.2549 0.0734
1.6575 1.1041 0.0691
1.6625 1.1037 0.0704
1.6675 1.2450 0.0744
1.6725 1.2222 0.0721
1.6775 1.1625 0.0705
1.6825 1.1836 0.0719
1.6875 1.0095 0.0673
1.6925 0.9603 0.0652
1.6975 1.1039 0.0704
1.7025 0.9552 0.0628
1.7075 1.0351 0.0668
1.7125 1.1337 0.0710
1.7175 0.9170 0.0634
1.7225 0.9503 0.0656
1.7275 1.0137 0.0654
1.7325 0.9604 0.0645
1.7375 0.9251 0.0638
1.7425 0.9332 0.0647
1.7475 0.9423 0.0649
1.7525 0.8951 0.0639
1.7575 0.8530 0.0591
1.7625 0.7705 0.0578
1.7675 0.8886 0.0628
1.7725 0.8339 0.0612
1.7775 0.8263 0.0614
1.7825 0.7054 0.0549
1.7875 0.7733 0.0576
1.7925 0.7689 0.0579
1.7975 0.7801 0.0589
1.8025 0.7374 0.0578
1.8075 0.6560 0.0547
1.8125 0.6669 0.0525
1.8175 0.7630 0.0580
1.8225 0.6438 0.0533
1.8275 0.6395 0.0537
1.8325 0.7105 0.0567
1.8375 0.6709 0.0553
1.8425 0.6135 0.0502
1.8475 0.7130 0.0562
1.8525 0.5092 0.0477
1.8575 0.5074 0.0477
1.8625 0.5818 0.0514
1.8675 0.5174 0.0474
1.8725 0.5374 0.0482
1.8775 0.5910 0.0510
1.8825 0.4761 0.0460
1.8875 0.4576 0.0455
1.8925 0.4391 0.0448
1.8975 0.4443 0.0436
1.9025 0.4719 0.0454
1.9075 0.5048 0.0473
1.9125 0.4220 0.0435
1.9175 0.3861 0.0416
1.9225 0.4617 0.0459
1.9275 0.4071 0.0420
1.9325 0.4789 0.0452
1.9375 0.4122 0.0432
1.9425 0.4310 0.0440
1.9475 0.3950 0.0426
1.9525 0.4298 0.0443
1.9575 0.3601 0.0388
1.9625 0.3192 0.0376
1.9675 0.3643 0.0400
1.9725 0.2985 0.0370
1.9775 0.3780 0.0414
1.9825 0.3598 0.0407
1.9875 0.3251 0.0370
1.9925 0.3353 0.0382
1.9975 0.3295 0.0385
2.0025 0.3355 0.0390
2.0075 0.3457 0.0396
2.0125 0.3184 0.0380
2.0175 0.3248 0.0373
2.0225 0.3301 0.0381
2.0275 0.3155 0.0374
2.0325 0.2995 0.0371
2.0375 0.2974 0.0366
2.0425 0.1910 0.0295
2.0475 0.3336 0.0380
2.0525 0.2427 0.0324
2.0575 0.2400 0.0330
2.0625 0.2563 0.0340
2.0675 0.3290 0.0386
2.0725 0.1759 0.0286
2.0775 0.1629 0.0268
2.0825 0.1924 0.0287
2.0875 0.2131 0.0308
2.0925 0.2115 0.0309
2.0975 0.2063 0.0308
2.1025 0.1638 0.0274
2.1075 0.1445 0.0256
2.1125 0.1820 0.0278
2.1175 0.1583 0.0264
2.1225 0.1319 0.0245
2.1275 0.1634 0.0273
2.1325 0.1297 0.0245
2.1375 0.1613 0.0273
2.1425 0.1791 0.0273
2.1475 0.1491 0.0256
2.1525 0.1438 0.0255
2.1575 0.1937 0.0299
2.1625 0.0926 0.0207
2.1675 0.1363 0.0249
2.1725 0.1140 0.0219
2.1775 0.0930 0.0203
2.1825 0.0990 0.0211
2.1875 0.1415 0.0254
2.1925 0.1423 0.0256
2.1975 0.0730 0.0183
2.2025 0.0941 0.0201
2.2075 0.0752 0.0182
2.2125 0.0801 0.0189
2.2175 0.0320 0.0121
2.2225 0.0547 0.0158
2.2275 0.0277 0.0113
2.2325 0.0175 0.0088
2.2375 0.0261 0.0107
2.2425 0.0135 0.0078
2.2475 0.0180 0.0090
2.2525 0.0046 0.0046
2.2575 0.0092 0.0065
2.2625 0.0184 0.0092
2.2675 0.0042 0.0042
2.2725 0.0177 0.0088
2.2775 0.0089 0.0063
2.2825 0.0000 1.0000
2.2875 0.0046 0.0046
2.2925 0.0140 0.0081
2.2975 0.0168 0.0084
2.3025 0.0177 0.0089
2.3075 0.0090 0.0063
2.3125 0.0091 0.0064
2.3175 0.0092 0.0065
2.3225 0.0046 0.0046
2.3275 0.0214 0.0096
2.3325 0.0222 0.0099
2.3375 0.0088 0.0062
2.3425 0.0229 0.0102
2.3475 0.0369 0.0130
2.3525 0.0138 0.0080
2.3575 0.0087 0.0062
2.3625 0.0042 0.0042
2.3675 0.0000 1.0000
2.3725 0.0090 0.0064
2.3775 0.0136 0.0079
2.3825 0.0185 0.0093
2.3875 0.0180 0.0090
2.3925 0.0085 0.0060
2.3975 0.0178 0.0089
2.4025 0.0091 0.0064
2.4075 0.0091 0.0064
2.4125 0.0138 0.0080
2.4175 0.0046 0.0046
2.4225 0.0000 1.0000
2.4275 0.0000 1.0000
2.4325 0.0045 0.0045
2.4375 0.0090 0.0064
2.4425 0.0000 1.0000
2.4475 0.0000 1.0000
2.4525 0.0331 0.0117
2.4575 0.0132 0.0077
2.4625 0.0090 0.0063
2.4675 0.0000 1.0000
2.4725 0.0182 0.0091
2.4775 0.0046 0.0046
2.4825 0.0000 1.0000
2.4875 0.0000 1.0000
2.4925 0.0045 0.0045
2.4975 0.0000 1.0000
2.5025 0.0046 0.0046
2.5075 0.0138 0.0080
2.5125 0.0084 0.0059
2.5175 0.0000 1.0000
2.5225 0.0045 0.0045
2.5275 0.0000 1.0000
2.5325 0.0047 0.0047
2.5375 0.0274 0.0112
2.5425 0.0410 0.0130
2.5475 0.0044 0.0044
2.5525 0.0000 1.0000
2.5575 0.0046 0.0046
2.5625 0.0455 0.0144
2.5675 0.0322 0.0122
2.5725 0.0165 0.0083
2.5775 0.0132 0.0076
2.5825 0.0045 0.0045
2.5875 0.0045 0.0045
2.5925 0.0044 0.0045
2.5975 0.0000 1.0000
2.6025 0.0000 1.0000
2.6075 0.0044 0.0044
2.6125 0.0044 0.0045
2.6175 0.0091 0.0064
2.6225 0.0000 1.0000
2.6275 0.0000 1.0000
2.6325 0.0000 1.0000
2.6375 0.0000 1.0000
2.6425 0.0000 1.0000
2.6475 0.0000 1.0000
2.6525 0.0046 0.0046
2.6575 0.0043 0.0043
2.6625 0.0000 1.0000
2.6675 0.0090 0.0064
2.6725 0.0135 0.0078
2.6775 0.0138 0.0079
2.6825 0.0183 0.0091
2.6875 0.0165 0.0082
2.6925 0.0088 0.0062
2.6975 0.0133 0.0077
0.0000 0.0000 1.0000
0.0000 0.0000 1.0000
0.0000 0.0000 1.0000
0.0000 0.0000 1.0000
0.0000 0.0000 1.0000
0.0000 0.0000 1.0000
0.0000 0.0000 1.0000
0.0000 0.0000 1.0000
0.0000 0.0000 1.0000
0.0000 0.0000 1.0000
0.0000 0.0000 1.0000
0.0000 0.0000 1.0000
0.0000 0.0000 1.0000
0.0000 0.0000 1.0000
