1.0725 0.8427 0.1574
1.0775 0.8037 0.1087
1.0825 0.9036 0.0923
1.0875 0.8555 0.0848
1.0925 0.7790 0.0768
1.0975 0.8283 0.0766
1.1025 0.8724 0.0696
1.1075 0.8771 0.0714
1.1125 0.7768 0.0650
1.1175 0.8502 0.0649
1.1225 0.7951 0.0601
1.1275 0.7741 0.0596
1.1325 0.9142 0.0640
1.1375 0.8385 0.0589
1.1425 0.8743 0.0605
1.1475 0.9385 0.0639
1.1525 0.9906 0.0658
1.1575 0.8627 0.0589
1.1625 0.9487 0.0634
1.1675 0.8718 0.0612
1.1725 1.0723 0.0676
1.1775 1.0328 0.0644
1.1825 1.0486 0.0674
1.1875 0.9322 0.0631
1.1925 1.0464 0.0659
1.1975 0.9679 0.0630
1.2025 0.8741 0.0606
1.2075 1.0914 0.0687
1.2125 1.0531 0.0656
1.2175 1.0729 0.0659
1.2225 1.0777 0.0680
1.2275 1.2287 0.0714
1.2325 1.0704 0.0665
1.2375 1.1604 0.0690
1.2425 1.0988 0.0672
1.2475 1.0992 0.0688
1.2525 1.2229 0.0705
1.2575 1.1806 0.0689
1.2625 1.1634 0.0699
1.2675 1.2611 0.0736
1.2725 1.2395 0.0710
1.2775 1.1070 0.0675
1.2825 1.3484 0.0757
1.2875 1.1952 0.0710
1.2925 1.2951 0.0742
1.2975 1.2859 0.0713
1.3025 1.3356 0.0749
1.3075 1.3227 0.0745
1.3125 1.3857 0.0771
1.3175 1.2919 0.0715
1.3225 1.3843 0.0761
1.3275 1.4499 0.0785
1.3325 1.4029 0.0776
1.3375 1.4481 0.0763
1.3425 1.4840 0.0791
1.3475 1.3689 0.0754
1.3525 1.4553 0.0795
1.3575 1.6124 0.0815
1.3625 1.4132 0.0764
1.3675 1.5623 0.0812
1.3725 1.4310 0.0777
1.3775 1.5892 0.0829
1.3825 1.6800 0.0825
1.3875 1.7171 0.0851
1.3925 1.6542 0.0835
1.3975 1.6968 0.0859
1.4025 1.6207 0.0822
1.4075 1.6790 0.0836
1.4125 1.6734 0.0839
1.4175 1.6862 0.0858
1.4225 1.5494 0.0821
1.4275 1.7881 0.0854
1.4325 1.7628 0.0859
1.4375 1.5701 0.0817
1.4425 1.6333 0.0845
1.4475 1.5603 0.0808
1.4525 1.8535 0.0881
1.4575 1.6781 0.0843
1.4625 1.7240 0.0864
1.4675 1.6160 0.0840
1.4725 1.5848 0.0811
1.4775 1.7342 0.0855
1.4825 1.7617 0.0868
1.4875 1.7359 0.0863
1.4925 1.7280 0.0872
1.4975 1.6447 0.0826
1.5025 1.7190 0.0850
1.5075 1.6854 0.0858
1.5125 1.6151 0.0836
1.5175 1.5617 0.0831
1.5225 1.7394 0.0837
1.5275 1.6482 0.0836
1.5325 1.6897 0.0865
1.5375 1.6148 0.0847
1.5425 1.6537 0.0855
1.5475 1.4767 0.0767
1.5525 1.5691 0.0824
1.5575 1.6692 0.0854
1.5625 1.5195 0.0811
1.5675 1.4025 0.0791
1.5725 1.5816 0.0805
1.5775 1.4488 0.0790
1.5825 1.4200 0.0786
1.5875 1.4498 0.0796
1.5925 1.5022 0.0821
1.5975 1.5300 0.0790
1.6025 1.4548 0.0787
1.6075 1.4958 0.0814
1.6125 1.4218 0.0795
1.6175 1.2600 0.0752
1.6225 1.3542 0.0747
1.6275 1.4202 0.0784
1.6325 1.3846 0.0773
1.6375 1.3687 0.0783
1.6425 1.2578 0.0748
1.6475 1.2590 0.0724
1.6525 1.2198 0.0724
1.6575 1.2172 0.0726
1.6625 1.1307 0.0712
1.6675 1.2762 0.0753
1.6725 1.1663 0.0704
1.6775 1.2105 0.0719
1.6825 1.1799 0.0718
1.6875 1.1389 0.0715
1.6925 1.2664 0.0749
1.6975 0.9471 0.0652
1.7025 1.1989 0.0704
1.7075 1.0956 0.0687
1.7125 0.8665 0.0621
1.7175 1.0403 0.0675
1.7225 1.0995 0.0705
1.7275 0.9238 0.0624
1.7325 0.9875 0.0654
1.7375 1.0393 0.0677
1.7425 0.9643 0.0658
1.7475 0.9111 0.0638
1.7525 1.0411 0.0689
1.7575 0.8198 0.0580
1.7625 0.8097 0.0592
1.7675 0.9246 0.0641
1.7725 0.8615 0.0622
1.7775 0.8223 0.0613
1.7825 0.9360 0.0632
1.7875 0.7600 0.0571
1.7925 0.6990 0.0552
1.7975 0.7257 0.0568
1.8025 0.6962 0.0561
1.8075 0.7014 0.0566
1.8125 0.7125 0.0543
1.8175 0.7194 0.0563
1.8225 0.5683 0.0500
1.8275 0.6264 0.0531
1.8325 0.6377 0.0537
1.8375 0.6303 0.0536
1.8425 0.6095 0.0501
1.8475 0.5530 0.0495
1.8525 0.5312 0.0487
1.8575 0.6194 0.0527
1.8625 0.6186 0.0530
1.8675 0.5526 0.0490
1.8725 0.5718 0.0498
1.8775 0.6169 0.0521
1.8825 0.6364 0.0532
1.8875 0.5295 0.0489
1.8925 0.4848 0.0470
1.8975 0.5087 0.0466
1.9025 0.3845 0.0410
1.9075 0.4918 0.0467
1.9125 0.4802 0.0464
1.9175 0.5072 0.0477
1.9225 0.5348 0.0494
1.9275 0.4595 0.0446
1.9325 0.3765 0.0401
1.9375 0.3939 0.0422
1.9425 0.4670 0.0458
1.9475 0.3673 0.0410
1.9525 0.4391 0.0448
1.9575 0.3307 0.0372
1.9625 0.3593 0.0399
1.9675 0.3732 0.0405
1.9725 0.3260 0.0387
1.9775 0.3960 0.0424
1.9825 0.3690 0.0412
1.9875 0.3257 0.0371
1.9925 0.3261 0.0377
1.9975 0.3648 0.0405
2.0025 0.3716 0.0410
2.0075 0.2638 0.0346
2.0125 0.2454 0.0334
2.0175 0.3078 0.0363
2.0225 0.2290 0.0318
2.0275 0.2534 0.0336
2.0325 0.2814 0.0360
2.0375 0.2839 0.0358
2.0425 0.2681 0.0349
2.0475 0.2814 0.0349
2.0525 0.2294 0.0315
2.0575 0.2401 0.0330
2.0625 0.2428 0.0331
2.0675 0.2525 0.0338
2.0725 0.1939 0.0300
2.0775 0.1670 0.0271
2.0825 0.2012 0.0293
2.0875 0.2802 0.0353
2.0925 0.1977 0.0298
2.0975 0.2609 0.0346
2.1025 0.1553 0.0266
2.1075 0.1717 0.0279
2.1125 0.2076 0.0297
2.1175 0.1983 0.0296
2.1225 0.2181 0.0315
2.1275 0.1727 0.0280
2.1325 0.1297 0.0245
2.1375 0.1519 0.0265
2.1425 0.1084 0.0213
2.1475 0.1448 0.0252
2.1525 0.1756 0.0281
2.1575 0.1289 0.0244
2.1625 0.1807 0.0289
2.1675 0.1135 0.0227
2.1725 0.1396 0.0243
2.1775 0.1461 0.0254
2.1825 0.0991 0.0211
2.1875 0.1277 0.0241
2.1925 0.1055 0.0220
2.1975 0.0686 0.0177
2.2025 0.0724 0.0176
2.2075 0.0531 0.0153
2.2125 0.0534 0.0154
2.2175 0.0641 0.0171
2.2225 0.0456 0.0144
2.2275 0.0693 0.0179
2.2325 0.0262 0.0107
2.2375 0.0130 0.0075
2.2425 0.0134 0.0078
2.2475 0.0316 0.0119
2.2525 0.0045 0.0045
2.2575 0.0277 0.0113
2.2625 0.0229 0.0103
2.2675 0.0210 0.0094
2.2725 0.0222 0.0099
2.2775 0.0223 0.0099
2.2825 0.0276 0.0113
2.2875 0.0046 0.0046
2.2925 0.0000 1.0000
2.2975 0.0000 1.0000
2.3025 0.0000 1.0000
2.3075 0.0089 0.0063
2.3125 0.0091 0.0064
2.3175 0.0092 0.0065
2.3225 0.0000 1.0000
2.3275 0.0085 0.0060
2.3325 0.0044 0.0044
2.3375 0.0176 0.0088
2.3425 0.0045 0.0045
2.3475 0.0183 0.0092
2.3525 0.0091 0.0065
2.3575 0.0086 0.0061
2.3625 0.0128 0.0074
2.3675 0.0319 0.0121
2.3725 0.0225 0.0101
2.3775 0.0091 0.0065
2.3825 0.0046 0.0046
2.3875 0.0135 0.0078
2.3925 0.0211 0.0095
2.3975 0.0178 0.0089
2.4025 0.0000 1.0000
2.4075 0.0046 0.0045
2.4125 0.0093 0.0065
2.4175 0.0092 0.0065
2.4225 0.0083 0.0059
2.4275 0.0134 0.0077
2.4325 0.0000 1.0000
2.4375 0.0136 0.0078
2.4425 0.0046 0.0046
2.4475 0.0000 1.0000
2.4525 0.0000 1.0000
2.4575 0.0044 0.0044
2.4625 0.0134 0.0077
2.4675 0.0000 1.0000
2.4725 0.0000 1.0000
2.4775 0.0046 0.0046
2.4825 0.0000 1.0000
2.4875 0.0000 1.0000
2.4925 0.0135 0.0078
2.4975 0.0045 0.0046
2.5025 0.0000 1.0000
2.5075 0.0000 1.0000
2.5125 0.0084 0.0059
2.5175 0.0176 0.0088
2.5225 0.0136 0.0078
2.5275 0.0045 0.0045
2.5325 0.0000 1.0000
2.5375 0.0091 0.0065
2.5425 0.0000 1.0000
2.5475 0.0044 0.0044
2.5525 0.0000 1.0000
2.5575 0.0000 1.0000
2.5625 0.0000 1.0000
2.5675 0.0000 1.0000
2.5725 0.0041 0.0041
2.5775 0.0044 0.0044
2.5825 0.0046 0.0045
2.5875 0.0046 0.0046
2.5925 0.0000 1.0000
2.5975 0.0047 0.0047
2.6025 0.0040 0.0040
2.6075 0.0044 0.0044
2.6125 0.0044 0.0045
2.6175 0.0273 0.0111
2.6225 0.0091 0.0065
2.6275 0.0000 1.0000
2.6325 0.0043 0.0043
2.6375 0.0000 1.0000
2.6425 0.0000 1.0000
2.6475 0.0269 0.0110
2.6525 0.0139 0.0080
2.6575 0.0042 0.0042
2.6625 0.0000 1.0000
2.6675 0.0045 0.0045
2.6725 0.0000 1.0000
2.6775 0.0046 0.0046
2.6825 0.0045 0.0046
2.6875 0.0041 0.0041
2.6925 0.0177 0.0088
2.6975 0.0044 0.0044
0.0000 0.0000 1.0000
0.0000 0.0000 1.0000
0.0000 0.0000 1.0000
0.0000 0.0000 1.0000
0.0000 0.0000 1.0000
0.0000 0.0000 1.0000
0.0000 0.0000 1.0000
0.0000 0.0000 1.0000
0.0000 0.0000 1.0000
0.0000 0.0000 1.0000
0.0000 0.0000 1.0000
0.0000 0.0000 1.0000
0.0000 0.0000 1.0000
0.0000 0.0000 1.0000
