1.0675 0.9883 0.4971
1.0725 0.8076 0.1074
1.0775 0.7020 0.0893
1.0825 0.6938 0.0813
1.0875 0.5784 0.0647
1.0925 0.6235 0.0658
1.0975 0.7366 0.0694
1.1025 0.6862 0.0637
1.1075 0.6226 0.0559
1.1125 0.6623 0.0590
1.1175 0.6611 0.0569
1.1225 0.7475 0.0579
1.1275 0.7421 0.0560
1.1325 0.6097 0.0514
1.1375 0.7872 0.0584
1.1425 0.6820 0.0520
1.1475 0.7335 0.0552
1.1525 0.7131 0.0552
1.1575 0.9262 0.0615
1.1625 0.7620 0.0559
1.1675 0.8122 0.0582
1.1725 0.9405 0.0633
1.1775 0.9365 0.0612
1.1825 0.9385 0.0621
1.1875 0.9589 0.0629
1.1925 1.0080 0.0652
1.1975 0.9845 0.0621
1.2025 0.9837 0.0632
1.2075 0.9746 0.0640
1.2125 0.9999 0.0650
1.2175 1.1364 0.0666
1.2225 1.1616 0.0693
1.2275 1.1491 0.0690
1.2325 1.1075 0.0691
1.2375 1.0692 0.0643
1.2425 1.1475 0.0689
1.2475 1.1561 0.0700
1.2525 1.1314 0.0685
1.2575 1.3252 0.0731
1.2625 1.2097 0.0707
1.2675 1.2502 0.0723
1.2725 1.2555 0.0720
1.2775 1.3407 0.0725
1.2825 1.3989 0.0762
1.2875 1.3577 0.0763
1.2925 1.3948 0.0759
1.2975 1.4551 0.0764
1.3025 1.3764 0.0754
1.3075 1.4468 0.0781
1.3125 1.4793 0.0792
1.3175 1.4514 0.0754
1.3225 1.6181 0.0823
1.3275 1.5518 0.0809
1.3325 1.7093 0.0858
1.3375 1.6557 0.0811
1.3425 1.5546 0.0807
1.3475 1.7982 0.0869
1.3525 1.6182 0.0828
1.3575 1.8824 0.0869
1.3625 1.6505 0.0831
1.3675 1.8235 0.0875
1.3725 1.9219 0.0914
1.3775 1.9262 0.0894
1.3825 1.9553 0.0890
1.3875 1.9357 0.0910
1.3925 1.8725 0.0896
1.3975 1.9262 0.0913
1.4025 2.0670 0.0902
1.4075 2.1922 0.0958
1.4125 1.9746 0.0923
1.4175 2.1217 0.0956
1.4225 2.0978 0.0922
1.4275 2.1447 0.0943
1.4325 1.8272 0.0887
1.4375 1.9694 0.0915
1.4425 2.0425 0.0942
1.4475 1.9948 0.0891
1.4525 2.0076 0.0924
1.4575 2.0787 0.0949
1.4625 2.0174 0.0939
1.4675 2.0455 0.0917
1.4725 2.0457 0.0921
1.4775 1.9789 0.0924
1.4825 2.0092 0.0933
1.4875 1.9740 0.0928
1.4925 2.0903 0.0920
1.4975 2.0748 0.0934
1.5025 1.8128 0.0888
1.5075 2.1359 0.0970
1.5125 1.8402 0.0877
1.5175 1.8093 0.0866
1.5225 1.7125 0.0855
1.5275 1.6606 0.0850
1.5325 1.7628 0.0881
1.5375 1.6208 0.0820
1.5425 1.7324 0.0848
1.5475 1.8202 0.0894
1.5525 1.5920 0.0827
1.5575 1.6029 0.0844
1.5625 1.6060 0.0811
1.5675 1.6272 0.0829
1.5725 1.5675 0.0826
1.5775 1.6489 0.0850
1.5825 1.5169 0.0819
1.5875 1.6438 0.0819
1.5925 1.6379 0.0840
1.5975 1.3962 0.0776
1.6025 1.4970 0.0812
1.6075 1.3980 0.0787
1.6125 1.4497 0.0766
1.6175 1.4981 0.0802
1.6225 1.4026 0.0788
1.6275 1.3698 0.0777
1.6325 1.2474 0.0743
1.6375 1.2900 0.0726
1.6425 1.2893 0.0745
1.6475 1.2377 0.0730
1.6525 1.4180 0.0797
1.6575 1.1296 0.0709
1.6625 1.1645 0.0692
1.6675 1.1607 0.0710
1.6725 1.0615 0.0682
1.6775 1.1325 0.0706
1.6825 1.0836 0.0694
1.6875 1.0377 0.0658
1.6925 1.2225 0.0721
1.6975 1.1831 0.0719
1.7025 1.1008 0.0695
1.7075 1.0000 0.0674
1.7125 1.0506 0.0669
1.7175 1.0256 0.0658
1.7225 0.9469 0.0644
1.7275 1.1461 0.0712
1.7325 1.0305 0.0681
1.7375 0.9562 0.0645
1.7425 1.0070 0.0642
1.7475 0.8623 0.0618
1.7525 0.9382 0.0644
1.7575 0.9045 0.0638
1.7625 0.8442 0.0613
1.7675 0.9960 0.0643
1.7725 0.8864 0.0621
1.7775 0.8672 0.0618
1.7825 0.9014 0.0636
1.7875 0.8272 0.0606
1.7925 0.7844 0.0583
1.7975 0.8485 0.0602
1.8025 0.8084 0.0595
1.8075 0.8221 0.0603
1.8125 0.9100 0.0637
1.8175 0.7805 0.0597
1.8225 0.7685 0.0564
1.8275 0.7246 0.0563
1.8325 0.7551 0.0574
1.8375 0.7437 0.0577
1.8425 0.8238 0.0611
1.8475 0.7660 0.0576
1.8525 0.7841 0.0576
1.8575 0.7047 0.0557
1.8625 0.7902 0.0594
1.8675 0.7588 0.0587
1.8725 0.6565 0.0545
1.8775 0.5834 0.0493
1.8825 0.6739 0.0538
1.8875 0.6361 0.0532
1.8925 0.7003 0.0564
1.8975 0.6640 0.0549
1.9025 0.7351 0.0570
1.9075 0.6978 0.0541
1.9125 0.6595 0.0537
1.9175 0.7082 0.0564
1.9225 0.6911 0.0560
1.9275 0.6581 0.0544
1.9325 0.6112 0.0511
1.9375 0.6454 0.0529
1.9425 0.7228 0.0564
1.9475 0.6005 0.0522
1.9525 0.5184 0.0483
1.9575 0.5686 0.0508
1.9625 0.5063 0.0462
1.9675 0.6114 0.0517
1.9725 0.5118 0.0477
1.9775 0.4304 0.0439
1.9825 0.6352 0.0535
1.9875 0.5978 0.0526
1.9925 0.5187 0.0466
1.9975 0.4368 0.0437
2.0025 0.5049 0.0475
2.0075 0.4793 0.0464
2.0125 0.4406 0.0448
2.0175 0.5113 0.0488
2.0225 0.5059 0.0458
2.0275 0.4913 0.0460
2.0325 0.4412 0.0446
2.0375 0.5465 0.0495
2.0425 0.3776 0.0417
2.0475 0.4794 0.0466
2.0525 0.4375 0.0427
2.0575 0.5003 0.0469
2.0625 0.4860 0.0467
2.0675 0.3959 0.0425
2.0725 0.4462 0.0451
2.0775 0.3597 0.0397
2.0825 0.4292 0.0427
2.0875 0.3790 0.0411
2.0925 0.4699 0.0461
2.0975 0.4591 0.0455
2.1025 0.4428 0.0450
2.1075 0.3923 0.0414
2.1125 0.4139 0.0421
2.1175 0.5125 0.0478
2.1225 0.4159 0.0434
2.1275 0.4092 0.0429
2.1325 0.3451 0.0399
2.1375 0.4296 0.0434
2.1425 0.4179 0.0423
2.1475 0.4261 0.0435
2.1525 0.3907 0.0417
2.1575 0.4031 0.0430
2.1625 0.3540 0.0401
2.1675 0.3731 0.0407
2.1725 0.4072 0.0418
2.1775 0.3548 0.0394
2.1825 0.3526 0.0399
2.1875 0.3570 0.0402
2.1925 0.4925 0.0481
2.1975 0.3939 0.0413
2.2025 0.4373 0.0433
2.2075 0.3554 0.0397
2.2125 0.3072 0.0373
2.2175 0.3302 0.0387
2.2225 0.3467 0.0398
2.2275 0.3687 0.0405
2.2325 0.3329 0.0375
2.2375 0.3527 0.0397
2.2425 0.3657 0.0407
2.2475 0.3852 0.0420
2.2525 0.3864 0.0422
2.2575 0.3328 0.0380
2.2625 0.3660 0.0397
2.2675 0.3758 0.0408
2.2725 0.3283 0.0385
2.2775 0.3470 0.0401
2.2825 0.3556 0.0400
2.2875 0.3179 0.0375
2.2925 0.2986 0.0357
2.2975 0.4349 0.0440
2.3025 0.3402 0.0393
2.3075 0.2716 0.0351
2.3125 0.2882 0.0363
2.3175 0.3410 0.0387
2.3225 0.2604 0.0334
2.3275 0.3031 0.0369
2.3325 0.2552 0.0338
2.3375 0.3343 0.0389
2.3425 0.2524 0.0341
2.3475 0.3397 0.0385
2.3525 0.3238 0.0374
2.3575 0.2903 0.0358
2.3625 0.3358 0.0391
2.3675 0.3247 0.0386
2.3725 0.2539 0.0340
2.3775 0.3164 0.0371
2.3825 0.3008 0.0360
2.3875 0.2862 0.0358
2.3925 0.2869 0.0356
2.3975 0.3390 0.0394
2.4025 0.3017 0.0375
2.4075 0.3137 0.0368
2.4125 0.3042 0.0361
2.4175 0.3133 0.0372
2.4225 0.2607 0.0343
2.4275 0.2559 0.0343
2.4325 0.3094 0.0378
2.4375 0.2929 0.0353
2.4425 0.2765 0.0346
2.4475 0.2735 0.0348
2.4525 0.2593 0.0344
2.4575 0.3084 0.0374
2.4625 0.2588 0.0346
2.4675 0.2558 0.0328
2.4725 0.2850 0.0351
2.4775 0.3015 0.0366
2.4825 0.3018 0.0372
2.4875 0.3110 0.0375
2.4925 0.3186 0.0384
2.4975 0.2660 0.0333
2.5025 0.3010 0.0360
2.5075 0.3119 0.0373
2.5125 0.2941 0.0368
2.5175 0.2922 0.0363
2.5225 0.2318 0.0328
2.5275 0.2618 0.0328
2.5325 0.2745 0.0346
2.5375 0.2513 0.0336
2.5425 0.2838 0.0361
2.5475 0.2547 0.0338
2.5525 0.2557 0.0336
2.5575 0.2441 0.0321
2.5625 0.3197 0.0377
2.5675 0.3002 0.0367
2.5725 0.2546 0.0340
2.5775 0.2082 0.0308
2.5825 0.2403 0.0320
2.5875 0.1746 0.0274
2.5925 0.2260 0.0317
2.5975 0.1940 0.0296
2.6025 0.2456 0.0334
2.6075 0.2022 0.0305
2.6125 0.1842 0.0275
2.6175 0.2005 0.0296
2.6225 0.2105 0.0307
2.6275 0.2026 0.0302
2.6325 0.1989 0.0300
2.6375 0.2120 0.0303
2.6425 0.1736 0.0271
2.6475 0.1368 0.0246
2.6525 0.1867 0.0288
2.6575 0.1788 0.0286
2.6625 0.1924 0.0297
2.6675 0.1228 0.0224
2.6725 0.1222 0.0231
2.6775 0.1982 0.0295
2.6825 0.1917 0.0296
2.6875 0.1311 0.0244
2.6925 0.1528 0.0255
2.6975 0.1579 0.0260
0.2137 0.0156 0.0092
0.2142 0.0306 0.0138
0.2147 0.0240 0.0122
0.2152 0.0375 0.0143
0.2157 0.0223 0.0113
0.2162 0.0285 0.0129
0.2167 0.0246 0.0124
0.2172 0.0213 0.0107
0.2177 0.0050 0.0052
0.2182 0.0176 0.0104
0.2188 0.0237 0.0120
0.2193 0.0268 0.0121
0.2198 0.0254 0.0114
