1.0675 0.2478 0.2489
1.0725 0.1553 0.0471
1.0775 0.2035 0.0481
1.0825 0.1514 0.0380
1.0875 0.2819 0.0452
1.0925 0.1939 0.0367
1.0975 0.2022 0.0364
1.1025 0.1654 0.0313
1.1075 0.1605 0.0284
1.1125 0.1889 0.0315
1.1175 0.2298 0.0336
1.1225 0.2324 0.0323
1.1275 0.1807 0.0276
1.1325 0.2117 0.0303
1.1375 0.2551 0.0332
1.1425 0.3248 0.0359
1.1475 0.3522 0.0382
1.1525 0.4483 0.0438
1.1575 0.4156 0.0412
1.1625 0.3068 0.0355
1.1675 0.2785 0.0341
1.1725 0.2807 0.0346
1.1775 0.2757 0.0332
1.1825 0.3207 0.0363
1.1875 0.4091 0.0411
1.1925 0.4681 0.0444
1.1975 0.3370 0.0364
1.2025 0.3005 0.0350
1.2075 0.2222 0.0306
1.2125 0.2189 0.0304
1.2175 0.2538 0.0315
1.2225 0.2887 0.0345
1.2275 0.1947 0.0284
1.2325 0.3316 0.0378
1.2375 0.3548 0.0370
1.2425 0.3216 0.0365
1.2475 0.2664 0.0336
1.2525 0.2983 0.0352
1.2575 0.3501 0.0376
1.2625 0.3880 0.0400
1.2675 0.4178 0.0418
1.2725 0.4211 0.0417
1.2775 0.4740 0.0431
1.2825 0.4065 0.0411
1.2875 0.3392 0.0382
1.2925 0.4579 0.0435
1.2975 0.5793 0.0482
1.3025 0.7957 0.0573
1.3075 1.0196 0.0656
1.3125 0.8085 0.0585
1.3175 0.7323 0.0536
1.3225 1.4003 0.0765
1.3275 2.7187 0.1071
1.3325 3.1785 0.1170
1.3375 1.9205 0.0873
1.3425 0.9446 0.0629
1.3475 0.6629 0.0528
1.3525 0.5969 0.0503
1.3575 0.6378 0.0506
1.3625 1.0344 0.0658
1.3675 1.9999 0.0917
1.3725 2.3773 0.1017
1.3775 1.5896 0.0812
1.3825 0.9349 0.0615
1.3875 0.6281 0.0518
1.3925 0.5320 0.0478
1.3975 0.5878 0.0504
1.4025 0.5153 0.0450
1.4075 0.6857 0.0536
1.4125 0.8571 0.0608
1.4175 1.7077 0.0858
1.4225 5.1937 0.1450
1.4275 8.0011 0.1822
1.4325 5.3925 0.1525
1.4375 2.1303 0.0952
1.4425 0.8436 0.0606
1.4475 0.7083 0.0531
1.4525 0.6166 0.0512
1.4575 0.5969 0.0508
1.4625 0.5065 0.0470
1.4675 0.4808 0.0445
1.4725 0.5057 0.0458
1.4775 0.4648 0.0448
1.4825 0.5541 0.0490
1.4875 0.5417 0.0486
1.4925 0.6560 0.0515
1.4975 0.6257 0.0513
1.5025 0.6558 0.0534
1.5075 0.6949 0.0553
1.5125 0.8906 0.0610
1.5175 0.8586 0.0597
1.5225 0.9355 0.0632
1.5275 1.1997 0.0722
1.5325 2.6970 0.1090
1.5375 3.3328 0.1176
1.5425 2.2874 0.0974
1.5475 1.1176 0.0700
1.5525 0.7365 0.0562
1.5575 0.5952 0.0514
1.5625 0.5778 0.0487
1.5675 0.5264 0.0471
1.5725 0.5044 0.0468
1.5775 0.6660 0.0540
1.5825 0.4952 0.0468
1.5875 0.5095 0.0456
1.5925 0.6157 0.0515
1.5975 0.5601 0.0491
1.6025 0.5059 0.0472
1.6075 0.7164 0.0563
1.6125 0.5748 0.0482
1.6175 0.5665 0.0493
1.6225 0.5172 0.0478
1.6275 0.4713 0.0456
1.6325 0.5794 0.0506
1.6375 0.4814 0.0443
1.6425 0.6029 0.0510
1.6475 0.5558 0.0489
1.6525 0.6544 0.0542
1.6575 0.8136 0.0601
1.6625 1.1772 0.0696
1.6675 1.8225 0.0890
1.6725 3.3343 0.1209
1.6775 5.2190 0.1516
1.6825 8.1790 0.1907
1.6875 9.5713 0.1997
1.6925 8.2420 0.1873
1.6975 5.3412 0.1527
1.7025 3.4487 0.1230
1.7075 2.5180 0.1070
1.7125 1.6551 0.0839
1.7175 1.2451 0.0725
1.7225 1.0693 0.0685
1.7275 0.8804 0.0624
1.7325 0.8099 0.0604
1.7375 0.7299 0.0563
1.7425 0.7370 0.0550
1.7475 0.7030 0.0558
1.7525 0.6282 0.0527
1.7575 0.5891 0.0515
1.7625 0.6088 0.0520
1.7675 0.5306 0.0469
1.7725 0.5947 0.0509
1.7775 0.5820 0.0506
1.7825 0.5650 0.0503
1.7875 0.5733 0.0505
1.7925 0.5940 0.0507
1.7975 0.5708 0.0494
1.8025 0.5417 0.0487
1.8075 0.5520 0.0494
1.8125 0.5711 0.0505
1.8175 0.5300 0.0492
1.8225 0.4662 0.0439
1.8275 0.5539 0.0492
1.8325 0.4190 0.0428
1.8375 0.3807 0.0413
1.8425 0.5474 0.0498
1.8475 0.4673 0.0450
1.8525 0.3816 0.0402
1.8575 0.6165 0.0521
1.8625 0.4333 0.0440
1.8675 0.5867 0.0516
1.8725 0.7011 0.0563
1.8775 0.5252 0.0468
1.8825 0.5791 0.0499
1.8875 0.5200 0.0481
1.8925 0.4684 0.0461
1.8975 0.4231 0.0439
1.9025 0.5132 0.0477
1.9075 0.5414 0.0477
1.9125 0.4761 0.0456
1.9175 0.5200 0.0483
1.9225 0.4994 0.0476
1.9275 0.4097 0.0430
1.9325 0.4192 0.0423
1.9375 0.4981 0.0464
1.9425 0.4936 0.0466
1.9475 0.4773 0.0466
1.9525 0.4595 0.0455
1.9575 0.5452 0.0498
1.9625 0.6754 0.0534
1.9675 0.6250 0.0522
1.9725 0.5647 0.0501
1.9775 0.6592 0.0544
1.9825 0.6401 0.0537
1.9875 0.5924 0.0524
1.9925 0.6482 0.0521
1.9975 0.5197 0.0476
2.0025 0.6068 0.0520
2.0075 0.6449 0.0538
2.0125 0.7274 0.0575
2.0175 0.7487 0.0590
2.0225 0.7586 0.0561
2.0275 0.7544 0.0570
2.0325 0.7296 0.0573
2.0375 0.6590 0.0544
2.0425 0.6726 0.0557
2.0475 0.6519 0.0543
2.0525 0.5174 0.0464
2.0575 0.5094 0.0474
2.0625 0.4408 0.0445
2.0675 0.4786 0.0468
2.0725 0.3461 0.0398
2.0775 0.4071 0.0423
2.0825 0.3351 0.0378
2.0875 0.3116 0.0373
2.0925 0.2841 0.0359
2.0975 0.3055 0.0371
2.1025 0.2596 0.0344
2.1075 0.2788 0.0349
2.1125 0.2901 0.0352
2.1175 0.2893 0.0359
2.1225 0.2983 0.0367
2.1275 0.2922 0.0363
2.1325 0.2714 0.0354
2.1375 0.2982 0.0362
2.1425 0.2386 0.0319
2.1475 0.3240 0.0379
2.1525 0.2884 0.0358
2.1575 0.2840 0.0361
2.1625 0.2950 0.0366
2.1675 0.2839 0.0355
2.1725 0.2527 0.0329
2.1775 0.2101 0.0304
2.1825 0.2979 0.0367
2.1875 0.2304 0.0323
2.1925 0.2674 0.0354
2.1975 0.2812 0.0349
2.2025 0.2400 0.0321
2.2075 0.2532 0.0335
2.2125 0.2940 0.0365
2.2175 0.2985 0.0368
2.2225 0.2278 0.0323
2.2275 0.2445 0.0330
2.2325 0.2652 0.0335
2.2375 0.1916 0.0292
2.2425 0.2846 0.0359
2.2475 0.1876 0.0293
2.2525 0.3269 0.0388
2.2575 0.2851 0.0351
2.2625 0.2930 0.0355
2.2675 0.2737 0.0348
2.2725 0.1797 0.0284
2.2775 0.2357 0.0330
2.2825 0.2250 0.0318
2.2875 0.2427 0.0328
2.2925 0.2689 0.0339
2.2975 0.2262 0.0317
2.3025 0.2587 0.0343
2.3075 0.2217 0.0317
2.3125 0.2513 0.0339
2.3175 0.2577 0.0336
2.3225 0.2688 0.0340
2.3275 0.2547 0.0338
2.3325 0.2053 0.0303
2.3375 0.2074 0.0306
2.3425 0.2663 0.0350
2.3475 0.2786 0.0349
2.3525 0.1768 0.0277
2.3575 0.2113 0.0305
2.3625 0.2585 0.0343
2.3675 0.1740 0.0283
2.3725 0.2133 0.0311
2.3775 0.1818 0.0281
2.3825 0.1849 0.0282
2.3875 0.2056 0.0304
2.3925 0.2379 0.0324
2.3975 0.2332 0.0327
2.4025 0.2553 0.0345
2.4075 0.1976 0.0292
2.4125 0.1925 0.0287
2.4175 0.1410 0.0250
2.4225 0.2515 0.0337
2.4275 0.2148 0.0314
2.4325 0.2078 0.0310
2.4375 0.2039 0.0295
2.4425 0.2634 0.0338
2.4475 0.2469 0.0331
2.4525 0.3323 0.0390
2.4575 0.2083 0.0308
2.4625 0.2632 0.0349
2.4675 0.2305 0.0311
2.4725 0.2376 0.0321
2.4775 0.2350 0.0323
2.4825 0.2517 0.0340
2.4875 0.1396 0.0251
2.4925 0.1801 0.0289
2.4975 0.2201 0.0303
2.5025 0.2234 0.0310
2.5075 0.2496 0.0334
2.5125 0.2527 0.0341
2.5175 0.2426 0.0331
2.5225 0.2318 0.0328
2.5275 0.2575 0.0325
2.5325 0.2046 0.0299
2.5375 0.2787 0.0354
2.5425 0.2473 0.0337
2.5475 0.1833 0.0287
2.5525 0.1985 0.0296
2.5575 0.1935 0.0286
2.5625 0.1508 0.0259
2.5675 0.1566 0.0265
2.5725 0.1816 0.0287
2.5775 0.2266 0.0321
2.5825 0.2066 0.0296
2.5875 0.2178 0.0306
2.5925 0.1952 0.0295
2.5975 0.2028 0.0303
2.6025 0.2265 0.0321
2.6075 0.1425 0.0256
2.6125 0.1759 0.0269
2.6175 0.1698 0.0272
2.6225 0.1746 0.0280
2.6275 0.1981 0.0299
2.6325 0.1399 0.0252
2.6375 0.1902 0.0287
2.6425 0.1819 0.0278
2.6475 0.2123 0.0307
2.6525 0.1864 0.0288
2.6575 0.1329 0.0247
2.6625 0.1417 0.0255
2.6675 0.1023 0.0205
2.6725 0.1352 0.0243
2.6775 0.1320 0.0241
2.6825 0.1459 0.0258
2.6875 0.1308 0.0243
2.6925 0.0977 0.0204
2.6975 0.1451 0.0249
0.2137 0.0156 0.0092
0.2142 0.0306 0.0138
0.2147 0.0240 0.0122
0.2152 0.0375 0.0143
0.2157 0.0223 0.0113
0.2162 0.0285 0.0129
0.2167 0.0246 0.0124
0.2172 0.0213 0.0107
0.2177 0.0050 0.0052
0.2182 0.0176 0.0104
0.2188 0.0237 0.0120
0.2193 0.0268 0.0121
0.2198 0.0254 0.0114
