1.0675 0.2448 0.2474
1.0725 0.1839 0.0513
1.0775 0.1803 0.0453
1.0825 0.1801 0.0414
1.0875 0.2165 0.0396
1.0925 0.2494 0.0416
1.0975 0.2018 0.0363
1.1025 0.1474 0.0295
1.1075 0.2101 0.0325
1.1125 0.2834 0.0386
1.1175 0.1758 0.0294
1.1225 0.2053 0.0303
1.1275 0.1642 0.0263
1.1325 0.2160 0.0306
1.1375 0.2984 0.0359
1.1425 0.2575 0.0320
1.1475 0.4186 0.0417
1.1525 0.4568 0.0442
1.1575 0.4118 0.0410
1.1625 0.2783 0.0338
1.1675 0.2495 0.0322
1.1725 0.2595 0.0332
1.1775 0.2840 0.0337
1.1825 0.3495 0.0379
1.1875 0.3799 0.0396
1.1925 0.4847 0.0452
1.1975 0.2820 0.0333
1.2025 0.2680 0.0330
1.2075 0.3106 0.0361
1.2125 0.2315 0.0313
1.2175 0.3276 0.0358
1.2225 0.2479 0.0320
1.2275 0.2071 0.0293
1.2325 0.3016 0.0361
1.2375 0.2818 0.0330
1.2425 0.2677 0.0333
1.2475 0.3260 0.0372
1.2525 0.2857 0.0344
1.2575 0.2697 0.0330
1.2625 0.3424 0.0376
1.2675 0.4890 0.0452
1.2725 0.4126 0.0413
1.2775 0.4584 0.0424
1.2825 0.3609 0.0387
1.2875 0.3603 0.0393
1.2925 0.4449 0.0429
1.2975 0.6510 0.0511
1.3025 0.8454 0.0591
1.3075 1.0330 0.0660
1.3125 0.8378 0.0596
1.3175 0.7991 0.0560
1.3225 1.4045 0.0767
1.3275 3.0146 0.1128
1.3325 3.1060 0.1157
1.3375 1.8666 0.0861
1.3425 0.8403 0.0593
1.3475 0.6211 0.0511
1.3525 0.5500 0.0483
1.3575 0.6986 0.0530
1.3625 1.1595 0.0697
1.3675 2.0461 0.0927
1.3725 2.2605 0.0991
1.3775 1.5474 0.0801
1.3825 0.9757 0.0629
1.3875 0.7091 0.0550
1.3925 0.5192 0.0472
1.3975 0.5493 0.0488
1.4025 0.5625 0.0471
1.4075 0.5523 0.0481
1.4125 0.8619 0.0610
1.4175 1.7037 0.0857
1.4225 5.6922 0.1518
1.4275 8.0422 0.1827
1.4325 5.0818 0.1480
1.4375 1.8417 0.0885
1.4425 0.9210 0.0633
1.4475 0.6007 0.0489
1.4525 0.6292 0.0517
1.4575 0.5106 0.0470
1.4625 0.4888 0.0462
1.4675 0.5181 0.0462
1.4725 0.5348 0.0471
1.4775 0.4606 0.0446
1.4825 0.5367 0.0482
1.4875 0.5718 0.0500
1.4925 0.6441 0.0511
1.4975 0.6425 0.0520
1.5025 0.7908 0.0586
1.5075 0.6781 0.0547
1.5125 0.9200 0.0620
1.5175 0.7051 0.0541
1.5225 0.9439 0.0635
1.5275 1.3382 0.0763
1.5325 2.7460 0.1100
1.5375 3.3028 0.1171
1.5425 2.3038 0.0978
1.5475 1.1867 0.0721
1.5525 0.7276 0.0559
1.5575 0.6526 0.0539
1.5625 0.5526 0.0476
1.5675 0.4844 0.0452
1.5725 0.5081 0.0470
1.5775 0.5347 0.0484
1.5825 0.4244 0.0433
1.5875 0.5380 0.0469
1.5925 0.6071 0.0512
1.5975 0.5690 0.0495
1.6025 0.5325 0.0484
1.6075 0.4950 0.0468
1.6125 0.6880 0.0528
1.6175 0.5189 0.0472
1.6225 0.5614 0.0498
1.6275 0.4885 0.0464
1.6325 0.5532 0.0495
1.6375 0.5751 0.0484
1.6425 0.5423 0.0483
1.6475 0.6382 0.0524
1.6525 0.6903 0.0556
1.6575 0.8266 0.0606
1.6625 1.2506 0.0717
1.6675 1.9781 0.0927
1.6725 3.4181 0.1224
1.6775 5.7693 0.1594
1.6825 8.5700 0.1952
1.6875 9.4548 0.1985
1.6925 7.4577 0.1781
1.6975 4.9607 0.1472
1.7025 3.3339 0.1209
1.7075 2.4586 0.1057
1.7125 1.6413 0.0836
1.7175 1.2496 0.0726
1.7225 0.9600 0.0649
1.7275 0.7964 0.0594
1.7325 0.7248 0.0571
1.7375 0.8255 0.0599
1.7425 0.6430 0.0513
1.7475 0.7871 0.0590
1.7525 0.7875 0.0590
1.7575 0.6572 0.0544
1.7625 0.6311 0.0530
1.7675 0.6011 0.0499
1.7725 0.5952 0.0509
1.7775 0.6167 0.0521
1.7825 0.6277 0.0531
1.7875 0.5644 0.0501
1.7925 0.6108 0.0514
1.7975 0.5541 0.0487
1.8025 0.5590 0.0495
1.8075 0.6503 0.0536
1.8125 0.6031 0.0519
1.8175 0.5482 0.0500
1.8225 0.5245 0.0466
1.8275 0.5100 0.0472
1.8325 0.3791 0.0407
1.8375 0.4206 0.0434
1.8425 0.4201 0.0436
1.8475 0.5839 0.0503
1.8525 0.4656 0.0444
1.8575 0.5861 0.0508
1.8625 0.5220 0.0483
1.8675 0.5724 0.0510
1.8725 0.7330 0.0576
1.8775 0.5087 0.0460
1.8825 0.4934 0.0460
1.8875 0.4533 0.0449
1.8925 0.5548 0.0502
1.8975 0.4232 0.0439
1.9025 0.3848 0.0413
1.9075 0.4746 0.0447
1.9125 0.4543 0.0445
1.9175 0.4885 0.0468
1.9225 0.3681 0.0409
1.9275 0.4820 0.0466
1.9325 0.4662 0.0446
1.9375 0.4327 0.0433
1.9425 0.4448 0.0443
1.9475 0.4822 0.0468
1.9525 0.4686 0.0459
1.9575 0.6223 0.0532
1.9625 0.6628 0.0529
1.9675 0.7863 0.0586
1.9725 0.7915 0.0593
1.9775 0.7226 0.0569
1.9825 0.5231 0.0485
1.9875 0.5275 0.0494
1.9925 0.4560 0.0437
1.9975 0.5676 0.0498
2.0025 0.5000 0.0472
2.0075 0.6594 0.0544
2.0125 0.6958 0.0562
2.0175 0.7207 0.0579
2.0225 0.8625 0.0598
2.0275 0.7543 0.0570
2.0325 0.6306 0.0533
2.0375 0.6813 0.0553
2.0425 0.6035 0.0527
2.0475 0.5567 0.0502
2.0525 0.4500 0.0433
2.0575 0.3866 0.0413
2.0625 0.3876 0.0417
2.0675 0.4286 0.0442
2.0725 0.3869 0.0420
2.0775 0.3988 0.0418
2.0825 0.3311 0.0375
2.0875 0.3641 0.0403
2.0925 0.3292 0.0386
2.0975 0.2424 0.0330
2.1025 0.3560 0.0403
2.1075 0.3094 0.0368
2.1125 0.2775 0.0344
2.1175 0.3564 0.0399
2.1225 0.3571 0.0402
2.1275 0.2880 0.0360
2.1325 0.2850 0.0362
2.1375 0.1929 0.0291
2.1425 0.2943 0.0355
2.1475 0.2530 0.0335
2.1525 0.3284 0.0382
2.1575 0.2333 0.0327
2.1625 0.2453 0.0334
2.1675 0.3152 0.0374
2.1725 0.2095 0.0300
2.1775 0.2539 0.0334
2.1825 0.3118 0.0376
2.1875 0.2666 0.0347
2.1925 0.2812 0.0363
2.1975 0.2335 0.0318
2.2025 0.2530 0.0330
2.2075 0.2842 0.0355
2.2125 0.2939 0.0365
2.2175 0.3709 0.0410
2.2225 0.3193 0.0382
2.2275 0.2703 0.0347
2.2325 0.2865 0.0348
2.2375 0.2006 0.0299
2.2425 0.2575 0.0341
2.2475 0.2430 0.0334
2.2525 0.2761 0.0357
2.2575 0.2507 0.0329
2.2625 0.2629 0.0337
2.2675 0.2341 0.0322
2.2725 0.2337 0.0324
2.2775 0.2867 0.0364
2.2825 0.2342 0.0325
2.2875 0.2339 0.0322
2.2925 0.2259 0.0311
2.2975 0.2974 0.0364
2.3025 0.2724 0.0352
2.3075 0.2352 0.0326
2.3125 0.2376 0.0329
2.3175 0.2093 0.0303
2.3225 0.2346 0.0317
2.3275 0.1964 0.0297
2.3325 0.2058 0.0304
2.3375 0.2393 0.0329
2.3425 0.2064 0.0308
2.3475 0.2002 0.0296
2.3525 0.1894 0.0286
2.3575 0.1757 0.0278
2.3625 0.2315 0.0324
2.3675 0.1600 0.0271
2.3725 0.2357 0.0327
2.3775 0.1949 0.0291
2.3825 0.2197 0.0308
2.3875 0.2012 0.0300
2.3925 0.2206 0.0312
2.3975 0.1921 0.0297
2.4025 0.1714 0.0282
2.4075 0.1805 0.0279
2.4125 0.2311 0.0315
2.4175 0.2205 0.0312
2.4225 0.2558 0.0339
2.4275 0.2333 0.0327
2.4325 0.2401 0.0333
2.4375 0.2337 0.0315
2.4425 0.1986 0.0293
2.4475 0.2162 0.0309
2.4525 0.2729 0.0353
2.4575 0.2175 0.0314
2.4625 0.1985 0.0303
2.4675 0.2596 0.0330
2.4725 0.2334 0.0318
2.4775 0.2393 0.0326
2.4825 0.2148 0.0314
2.4875 0.1622 0.0271
2.4925 0.2077 0.0310
2.4975 0.2116 0.0297
2.5025 0.2535 0.0331
2.5075 0.2227 0.0315
2.5125 0.2528 0.0341
2.5175 0.2606 0.0343
2.5225 0.2551 0.0344
2.5275 0.2945 0.0347
2.5325 0.2352 0.0320
2.5375 0.2878 0.0360
2.5425 0.2103 0.0311
2.5475 0.2279 0.0320
2.5525 0.2114 0.0306
2.5575 0.2569 0.0329
2.5625 0.1640 0.0270
2.5675 0.2108 0.0307
2.5725 0.2272 0.0321
2.5775 0.2168 0.0314
2.5825 0.1560 0.0258
2.5875 0.2129 0.0302
2.5925 0.2170 0.0311
2.5975 0.2214 0.0316
2.6025 0.1627 0.0272
2.6075 0.1610 0.0272
2.6125 0.2127 0.0295
2.6175 0.1569 0.0262
2.6225 0.1388 0.0249
2.6275 0.1259 0.0238
2.6325 0.1533 0.0263
2.6375 0.1859 0.0284
2.6425 0.1605 0.0261
2.6475 0.1813 0.0283
2.6525 0.1552 0.0263
2.6575 0.1605 0.0271
2.6625 0.1235 0.0238
2.6675 0.1639 0.0259
2.6725 0.1091 0.0218
2.6775 0.0968 0.0207
2.6825 0.1689 0.0278
2.6875 0.1763 0.0282
2.6925 0.1531 0.0255
2.6975 0.1152 0.0222
0.2137 0.0156 0.0092
0.2142 0.0306 0.0138
0.2147 0.0240 0.0122
0.2152 0.0375 0.0143
0.2157 0.0223 0.0113
0.2162 0.0285 0.0129
0.2167 0.0246 0.0124
0.2172 0.0213 0.0107
0.2177 0.0050 0.0052
0.2182 0.0176 0.0104
0.2188 0.0237 0.0120
0.2193 0.0268 0.0121
0.2198 0.0254 0.0114
