1.0675 0.9933 0.4983
1.0725 0.6242 0.0944
1.0775 0.5200 0.0769
1.0825 0.6363 0.0778
1.0875 0.6503 0.0686
1.0925 0.6718 0.0683
1.0975 0.7239 0.0688
1.1025 0.6322 0.0612
1.1075 0.6069 0.0552
1.1125 0.7143 0.0613
1.1175 0.6854 0.0580
1.1225 0.7334 0.0573
1.1275 0.7083 0.0547
1.1325 0.7351 0.0564
1.1375 0.7918 0.0585
1.1425 0.6942 0.0525
1.1475 0.8707 0.0601
1.1525 0.8073 0.0587
1.1575 0.8650 0.0594
1.1625 0.9425 0.0622
1.1675 0.9622 0.0633
1.1725 0.8723 0.0609
1.1775 0.9886 0.0629
1.1825 0.9257 0.0617
1.1875 0.9664 0.0632
1.1925 1.0758 0.0674
1.1975 1.0197 0.0632
1.2025 1.0324 0.0648
1.2075 1.0846 0.0675
1.2125 1.0962 0.0680
1.2175 1.0855 0.0651
1.2225 1.1449 0.0688
1.2275 1.1576 0.0693
1.2325 1.2715 0.0740
1.2375 1.0768 0.0645
1.2425 1.0902 0.0671
1.2475 1.0927 0.0680
1.2525 1.1898 0.0703
1.2575 1.2852 0.0720
1.2625 1.2792 0.0727
1.2675 1.2547 0.0725
1.2725 1.2473 0.0718
1.2775 1.3762 0.0735
1.2825 1.3953 0.0761
1.2875 1.4397 0.0786
1.2925 1.4063 0.0762
1.2975 1.4666 0.0767
1.3025 1.4719 0.0780
1.3075 1.5851 0.0818
1.3125 1.4269 0.0778
1.3175 1.6892 0.0814
1.3225 1.5882 0.0815
1.3275 1.5133 0.0799
1.3325 1.6242 0.0837
1.3375 1.6246 0.0803
1.3425 1.5597 0.0808
1.3475 1.7219 0.0851
1.3525 1.7407 0.0859
1.3575 1.8307 0.0857
1.3625 1.6378 0.0828
1.3675 2.0550 0.0929
1.3725 1.8609 0.0899
1.3775 1.9628 0.0902
1.3825 1.9228 0.0882
1.3875 2.0007 0.0925
1.3925 1.8507 0.0891
1.3975 1.7741 0.0876
1.4025 1.9882 0.0885
1.4075 1.9502 0.0903
1.4125 1.9788 0.0924
1.4175 2.1439 0.0961
1.4225 1.8475 0.0865
1.4275 1.9292 0.0895
1.4325 1.9136 0.0908
1.4375 2.1437 0.0955
1.4425 2.2601 0.0991
1.4475 1.8792 0.0865
1.4525 2.0926 0.0944
1.4575 2.0776 0.0948
1.4625 2.0484 0.0946
1.4675 2.0255 0.0913
1.4725 2.0121 0.0914
1.4775 1.8751 0.0899
1.4825 1.8716 0.0900
1.4875 1.9177 0.0915
1.4925 1.9322 0.0884
1.4975 1.9739 0.0911
1.5025 1.9036 0.0910
1.5075 1.8102 0.0893
1.5125 1.7905 0.0866
1.5175 1.7228 0.0845
1.5225 1.8886 0.0898
1.5275 1.8768 0.0903
1.5325 1.7984 0.0890
1.5375 1.7993 0.0864
1.5425 1.6657 0.0831
1.5475 1.7723 0.0882
1.5525 1.6839 0.0850
1.5575 1.6073 0.0845
1.5625 1.6998 0.0835
1.5675 1.7995 0.0871
1.5725 1.5692 0.0826
1.5775 1.5869 0.0834
1.5825 1.6228 0.0847
1.5875 1.4227 0.0762
1.5925 1.3312 0.0758
1.5975 1.4213 0.0783
1.6025 1.4843 0.0809
1.6075 1.3275 0.0766
1.6125 1.3849 0.0749
1.6175 1.3642 0.0765
1.6225 1.2432 0.0742
1.6275 1.1626 0.0716
1.6325 1.3052 0.0760
1.6375 1.2323 0.0709
1.6425 1.3374 0.0759
1.6475 1.1946 0.0718
1.6525 1.1929 0.0731
1.6575 1.0620 0.0687
1.6625 1.1809 0.0697
1.6675 1.3693 0.0772
1.6725 1.0748 0.0687
1.6775 1.0929 0.0694
1.6825 1.1954 0.0729
1.6875 1.0869 0.0673
1.6925 1.0941 0.0682
1.6975 1.0343 0.0672
1.7025 1.1538 0.0711
1.7075 1.0677 0.0697
1.7125 1.1481 0.0699
1.7175 1.0344 0.0661
1.7225 0.9822 0.0656
1.7275 0.9821 0.0659
1.7325 1.0393 0.0684
1.7375 0.9434 0.0640
1.7425 1.0241 0.0648
1.7475 0.9772 0.0658
1.7525 0.8896 0.0627
1.7575 0.9182 0.0643
1.7625 0.9106 0.0636
1.7675 0.9338 0.0622
1.7725 0.8346 0.0602
1.7775 0.9385 0.0643
1.7825 0.9823 0.0664
1.7875 0.9515 0.0650
1.7925 0.8366 0.0602
1.7975 0.8614 0.0607
1.8025 0.7991 0.0592
1.8075 0.9279 0.0641
1.8125 0.8797 0.0627
1.8175 0.7987 0.0604
1.8225 0.8266 0.0584
1.8275 0.8198 0.0598
1.8325 0.8645 0.0614
1.8375 0.6760 0.0551
1.8425 0.8148 0.0607
1.8475 0.7881 0.0584
1.8525 0.7759 0.0573
1.8575 0.7316 0.0568
1.8625 0.7233 0.0568
1.8675 0.8189 0.0610
1.8725 0.6513 0.0543
1.8775 0.7800 0.0570
1.8825 0.6956 0.0546
1.8875 0.6841 0.0551
1.8925 0.6406 0.0540
1.8975 0.6689 0.0551
1.9025 0.6328 0.0529
1.9075 0.6176 0.0509
1.9125 0.7169 0.0559
1.9175 0.5602 0.0501
1.9225 0.6684 0.0551
1.9275 0.5410 0.0494
1.9325 0.5989 0.0506
1.9375 0.6543 0.0532
1.9425 0.6124 0.0519
1.9475 0.5732 0.0510
1.9525 0.6758 0.0552
1.9575 0.6408 0.0540
1.9625 0.5574 0.0485
1.9675 0.5330 0.0482
1.9725 0.6134 0.0522
1.9775 0.5290 0.0487
1.9825 0.5817 0.0512
1.9875 0.6809 0.0561
1.9925 0.5230 0.0468
1.9975 0.4938 0.0464
2.0025 0.4464 0.0446
2.0075 0.5515 0.0497
2.0125 0.4726 0.0463
2.0175 0.5626 0.0512
2.0225 0.4645 0.0439
2.0275 0.4613 0.0446
2.0325 0.3962 0.0422
2.0375 0.4440 0.0446
2.0425 0.5436 0.0501
2.0475 0.4981 0.0475
2.0525 0.5331 0.0471
2.0575 0.4916 0.0465
2.0625 0.4416 0.0445
2.0675 0.4238 0.0440
2.0725 0.4562 0.0456
2.0775 0.4378 0.0438
2.0825 0.4506 0.0438
2.0875 0.4184 0.0432
2.0925 0.4607 0.0457
2.0975 0.4722 0.0461
2.1025 0.4699 0.0463
2.1075 0.4357 0.0436
2.1125 0.4482 0.0438
2.1175 0.3924 0.0419
2.1225 0.3882 0.0419
2.1275 0.4092 0.0429
2.1325 0.3911 0.0425
2.1375 0.3109 0.0369
2.1425 0.4481 0.0438
2.1475 0.4796 0.0462
2.1525 0.3952 0.0419
2.1575 0.3757 0.0415
2.1625 0.4725 0.0463
2.1675 0.3727 0.0407
2.1725 0.3726 0.0400
2.1775 0.3858 0.0411
2.1825 0.3119 0.0376
2.1875 0.3933 0.0422
2.1925 0.4322 0.0450
2.1975 0.3676 0.0399
2.2025 0.3257 0.0374
2.2075 0.3288 0.0382
2.2125 0.3433 0.0394
2.2175 0.3210 0.0381
2.2225 0.3878 0.0421
2.2275 0.3907 0.0417
2.2325 0.3794 0.0400
2.2375 0.4195 0.0433
2.2425 0.4066 0.0429
2.2475 0.3531 0.0402
2.2525 0.4143 0.0437
2.2575 0.3286 0.0377
2.2625 0.3233 0.0373
2.2675 0.3756 0.0408
2.2725 0.4001 0.0425
2.2775 0.3558 0.0406
2.2825 0.3107 0.0374
2.2875 0.3711 0.0405
2.2925 0.2948 0.0355
2.2975 0.3017 0.0366
2.3025 0.3539 0.0401
2.3075 0.2711 0.0350
2.3125 0.3433 0.0396
2.3175 0.3101 0.0369
2.3225 0.3290 0.0376
2.3275 0.3305 0.0385
2.3325 0.2636 0.0344
2.3375 0.3072 0.0373
2.3425 0.3401 0.0396
2.3475 0.3137 0.0370
2.3525 0.3025 0.0362
2.3575 0.3036 0.0366
2.3625 0.3223 0.0383
2.3675 0.3712 0.0413
2.3725 0.2723 0.0352
2.3775 0.3122 0.0368
2.3825 0.3094 0.0365
2.3875 0.3491 0.0396
2.3925 0.2692 0.0345
2.3975 0.2837 0.0361
2.4025 0.3344 0.0394
2.4075 0.3140 0.0368
2.4125 0.2782 0.0346
2.4175 0.2429 0.0328
2.4225 0.2831 0.0357
2.4275 0.3251 0.0386
2.4325 0.3280 0.0390
2.4375 0.2758 0.0343
2.4425 0.2547 0.0332
2.4475 0.2118 0.0306
2.4525 0.2736 0.0353
2.4575 0.2629 0.0346
2.4625 0.2450 0.0337
2.4675 0.3604 0.0389
2.4725 0.3499 0.0389
2.4775 0.2968 0.0363
2.4825 0.2838 0.0361
2.4875 0.2437 0.0332
2.4925 0.2353 0.0330
2.4975 0.3117 0.0360
2.5025 0.2577 0.0333
2.5075 0.2808 0.0354
2.5125 0.3355 0.0393
2.5175 0.3370 0.0390
2.5225 0.3291 0.0391
2.5275 0.2492 0.0320
2.5325 0.2525 0.0332
2.5375 0.2742 0.0351
2.5425 0.2931 0.0367
2.5475 0.2953 0.0364
2.5525 0.2339 0.0322
2.5575 0.3156 0.0365
2.5625 0.2753 0.0350
2.5675 0.2330 0.0323
2.5725 0.1998 0.0301
2.5775 0.2126 0.0311
2.5825 0.2364 0.0317
2.5875 0.2259 0.0311
2.5925 0.2571 0.0338
2.5975 0.2429 0.0332
2.6025 0.2584 0.0343
2.6075 0.2160 0.0316
2.6125 0.2292 0.0306
2.6175 0.1875 0.0286
2.6225 0.2017 0.0301
2.6275 0.1889 0.0292
2.6325 0.1718 0.0279
2.6375 0.2729 0.0344
2.6425 0.2203 0.0305
2.6475 0.1945 0.0293
2.6525 0.1910 0.0291
2.6575 0.1375 0.0251
2.6625 0.1648 0.0275
2.6675 0.2047 0.0290
2.6725 0.1613 0.0265
2.6775 0.1541 0.0261
2.6825 0.1277 0.0241
2.6875 0.1943 0.0297
2.6925 0.1701 0.0269
2.6975 0.1580 0.0260
0.2137 0.0156 0.0092
0.2142 0.0306 0.0138
0.2147 0.0240 0.0122
0.2152 0.0375 0.0143
0.2157 0.0223 0.0113
0.2162 0.0285 0.0129
0.2167 0.0246 0.0124
0.2172 0.0213 0.0107
0.2177 0.0050 0.0052
0.2182 0.0176 0.0104
0.2188 0.0237 0.0120
0.2193 0.0268 0.0121
0.2198 0.0254 0.0114
