1.0675 -0.0004 1.0000
1.0725 0.1839 0.0513
1.0775 0.1696 0.0439
1.0825 0.2277 0.0466
1.0875 0.2238 0.0403
1.0925 0.1935 0.0367
1.0975 0.1820 0.0345
1.1025 0.2123 0.0354
1.1075 0.1804 0.0301
1.1125 0.2152 0.0337
1.1175 0.2151 0.0325
1.1225 0.1742 0.0280
1.1275 0.2527 0.0327
1.1325 0.1813 0.0280
1.1375 0.2076 0.0300
1.1425 0.2576 0.0320
1.1475 0.3150 0.0362
1.1525 0.5421 0.0481
1.1575 0.4482 0.0428
1.1625 0.2621 0.0328
1.1675 0.2245 0.0306
1.1725 0.2847 0.0348
1.1775 0.2398 0.0310
1.1825 0.2588 0.0326
1.1875 0.3055 0.0355
1.1925 0.3498 0.0384
1.1975 0.3840 0.0388
1.2025 0.3206 0.0361
1.2075 0.2600 0.0331
1.2125 0.2017 0.0292
1.2175 0.2496 0.0312
1.2225 0.2189 0.0301
1.2275 0.2277 0.0307
1.2325 0.2370 0.0320
1.2375 0.3202 0.0352
1.2425 0.3220 0.0365
1.2475 0.3005 0.0357
1.2525 0.3478 0.0380
1.2575 0.3704 0.0386
1.2625 0.3299 0.0369
1.2675 0.3966 0.0407
1.2725 0.4619 0.0437
1.2775 0.4193 0.0405
1.2825 0.4067 0.0411
1.2875 0.3346 0.0379
1.2925 0.4986 0.0454
1.2975 0.4473 0.0424
1.3025 0.6308 0.0511
1.3075 0.9574 0.0636
1.3125 0.8944 0.0616
1.3175 0.7665 0.0548
1.3225 1.0912 0.0676
1.3275 2.3233 0.0990
1.3325 3.2269 0.1179
1.3375 2.3495 0.0966
1.3425 1.1032 0.0679
1.3475 0.6458 0.0521
1.3525 0.6096 0.0508
1.3575 0.7065 0.0533
1.3625 0.9585 0.0633
1.3675 1.6980 0.0845
1.3725 2.4261 0.1027
1.3775 1.7758 0.0858
1.3825 1.0200 0.0643
1.3875 0.6410 0.0523
1.3925 0.5795 0.0499
1.3975 0.5235 0.0476
1.4025 0.5944 0.0484
1.4075 0.5474 0.0479
1.4125 0.7587 0.0572
1.4175 1.2505 0.0734
1.4225 4.1965 0.1303
1.4275 8.2339 0.1848
1.4325 6.1813 0.1632
1.4375 2.5913 0.1050
1.4425 1.0126 0.0664
1.4475 0.6722 0.0517
1.4525 0.5995 0.0505
1.4575 0.5584 0.0492
1.4625 0.4930 0.0464
1.4675 0.5183 0.0462
1.4725 0.4557 0.0435
1.4775 0.4614 0.0446
1.4825 0.5412 0.0484
1.4875 0.5720 0.0500
1.4925 0.5589 0.0476
1.4975 0.5374 0.0475
1.5025 0.5821 0.0503
1.5075 0.7704 0.0583
1.5125 0.7196 0.0549
1.5175 0.7468 0.0557
1.5225 0.8197 0.0592
1.5275 1.2160 0.0727
1.5325 2.2438 0.0994
1.5375 3.4035 0.1188
1.5425 2.5196 0.1022
1.5475 1.4578 0.0800
1.5525 0.8185 0.0593
1.5575 0.5771 0.0506
1.5625 0.5362 0.0469
1.5675 0.5559 0.0484
1.5725 0.5388 0.0484
1.5775 0.5081 0.0472
1.5825 0.5126 0.0476
1.5875 0.5219 0.0462
1.5925 0.6027 0.0510
1.5975 0.4520 0.0441
1.6025 0.5415 0.0488
1.6075 0.6718 0.0545
1.6125 0.6399 0.0509
1.6175 0.5447 0.0483
1.6225 0.5528 0.0495
1.6275 0.5329 0.0485
1.6325 0.5616 0.0498
1.6375 0.5180 0.0460
1.6425 0.6033 0.0510
1.6475 0.6549 0.0531
1.6525 0.5742 0.0507
1.6575 0.6757 0.0548
1.6625 0.8517 0.0592
1.6675 1.3523 0.0767
1.6725 2.6408 0.1076
1.6775 4.4877 0.1406
1.6825 6.8847 0.1749
1.6875 9.4841 0.1988
1.6925 8.5891 0.1912
1.6975 5.9573 0.1613
1.7025 4.0672 0.1336
1.7075 2.6817 0.1104
1.7125 1.9218 0.0904
1.7175 1.4096 0.0771
1.7225 1.2324 0.0735
1.7275 0.9154 0.0636
1.7325 0.8010 0.0601
1.7375 0.7559 0.0573
1.7425 0.6922 0.0533
1.7475 0.6766 0.0547
1.7525 0.6681 0.0544
1.7575 0.7019 0.0562
1.7625 0.6305 0.0529
1.7675 0.4768 0.0445
1.7725 0.5607 0.0494
1.7775 0.5330 0.0485
1.7825 0.6410 0.0536
1.7875 0.5424 0.0491
1.7925 0.5158 0.0473
1.7975 0.5540 0.0487
1.8025 0.5628 0.0497
1.8075 0.5878 0.0510
1.8125 0.5857 0.0511
1.8175 0.5708 0.0511
1.8225 0.4666 0.0439
1.8275 0.4754 0.0456
1.8325 0.5409 0.0486
1.8375 0.4525 0.0450
1.8425 0.5062 0.0479
1.8475 0.5621 0.0493
1.8525 0.5169 0.0468
1.8575 0.4887 0.0464
1.8625 0.5490 0.0495
1.8675 0.5862 0.0516
1.8725 0.5475 0.0498
1.8775 0.5043 0.0458
1.8825 0.4717 0.0450
1.8875 0.4712 0.0458
1.8925 0.4676 0.0461
1.8975 0.4363 0.0445
1.9025 0.4467 0.0445
1.9075 0.4197 0.0420
1.9125 0.5158 0.0475
1.9175 0.4257 0.0437
1.9225 0.5002 0.0477
1.9275 0.4189 0.0434
1.9325 0.3938 0.0410
1.9375 0.4328 0.0433
1.9425 0.5065 0.0472
1.9475 0.5093 0.0481
1.9525 0.4959 0.0473
1.9575 0.5090 0.0481
1.9625 0.5744 0.0492
1.9675 0.6375 0.0528
1.9725 0.7252 0.0568
1.9775 0.5831 0.0511
1.9825 0.6445 0.0539
1.9875 0.5089 0.0485
1.9925 0.5349 0.0473
1.9975 0.5197 0.0476
2.0025 0.5363 0.0489
2.0075 0.5966 0.0517
2.0125 0.6088 0.0526
2.0175 0.7118 0.0575
2.0225 0.7216 0.0547
2.0275 0.8235 0.0596
2.0325 0.7477 0.0580
2.0375 0.7040 0.0562
2.0425 0.7098 0.0572
2.0475 0.4930 0.0472
2.0525 0.4841 0.0449
2.0575 0.3677 0.0402
2.0625 0.4637 0.0456
2.0675 0.3826 0.0418
2.0725 0.3464 0.0398
2.0775 0.3414 0.0387
2.0825 0.3782 0.0401
2.0875 0.3026 0.0368
2.0925 0.3574 0.0402
2.0975 0.2514 0.0337
2.1025 0.3605 0.0406
2.1075 0.2614 0.0338
2.1125 0.2987 0.0357
2.1175 0.2540 0.0337
2.1225 0.2890 0.0362
2.1275 0.2247 0.0318
2.1325 0.2899 0.0365
2.1375 0.3153 0.0372
2.1425 0.2471 0.0325
2.1475 0.2396 0.0326
2.1525 0.2349 0.0323
2.1575 0.3296 0.0389
2.1625 0.2725 0.0352
2.1675 0.2662 0.0344
2.1725 0.3041 0.0361
2.1775 0.2978 0.0361
2.1825 0.2664 0.0347
2.1875 0.2891 0.0362
2.1925 0.2062 0.0311
2.1975 0.2810 0.0349
2.2025 0.2785 0.0346
2.2075 0.2889 0.0358
2.2125 0.2983 0.0367
2.2175 0.2395 0.0329
2.2225 0.2643 0.0347
2.2275 0.3242 0.0380
2.2325 0.2570 0.0329
2.2375 0.2275 0.0319
2.2425 0.3072 0.0373
2.2475 0.2199 0.0318
2.2525 0.2345 0.0329
2.2575 0.2330 0.0318
2.2625 0.2499 0.0328
2.2675 0.2385 0.0325
2.2725 0.2518 0.0337
2.2775 0.2173 0.0317
2.2825 0.2206 0.0315
2.2875 0.2694 0.0345
2.2925 0.2134 0.0302
2.2975 0.2887 0.0358
2.3025 0.2677 0.0349
2.3075 0.2804 0.0356
2.3125 0.2790 0.0357
2.3175 0.2355 0.0321
2.3225 0.2815 0.0348
2.3275 0.2318 0.0322
2.3325 0.2322 0.0323
2.3375 0.1984 0.0300
2.3425 0.2660 0.0350
2.3475 0.2001 0.0296
2.3525 0.2289 0.0315
2.3575 0.2681 0.0344
2.3625 0.2132 0.0311
2.3675 0.2194 0.0317
2.3725 0.2628 0.0346
2.3775 0.1908 0.0288
2.3825 0.1848 0.0282
2.3875 0.1788 0.0283
2.3925 0.3042 0.0367
2.3975 0.2791 0.0358
2.4025 0.2181 0.0318
2.4075 0.2023 0.0295
2.4125 0.2396 0.0321
2.4175 0.1942 0.0293
2.4225 0.1978 0.0298
2.4275 0.2380 0.0330
2.4325 0.2031 0.0307
2.4375 0.2292 0.0312
2.4425 0.2502 0.0329
2.4475 0.2070 0.0303
2.4525 0.2414 0.0332
2.4575 0.1993 0.0301
2.4625 0.2079 0.0310
2.4675 0.2097 0.0297
2.4725 0.2635 0.0338
2.4775 0.1948 0.0294
2.4825 0.2239 0.0320
2.4875 0.2073 0.0306
2.4925 0.2400 0.0333
2.4975 0.1908 0.0282
2.5025 0.1977 0.0292
2.5075 0.1644 0.0271
2.5125 0.2711 0.0353
2.5175 0.2514 0.0337
2.5225 0.2552 0.0345
2.5275 0.2246 0.0303
2.5325 0.2397 0.0324
2.5375 0.2427 0.0331
2.5425 0.2104 0.0311
2.5475 0.1964 0.0297
2.5525 0.2473 0.0331
2.5575 0.1895 0.0283
2.5625 0.1905 0.0291
2.5675 0.1609 0.0269
2.5725 0.1912 0.0295
2.5775 0.2083 0.0308
2.5825 0.2363 0.0317
2.5875 0.1923 0.0287
2.5925 0.2168 0.0310
2.5975 0.2170 0.0313
2.6025 0.2221 0.0318
2.6075 0.1608 0.0272
2.6125 0.1882 0.0278
2.6175 0.1874 0.0286
2.6225 0.1522 0.0261
2.6275 0.2159 0.0312
2.6325 0.1580 0.0267
2.6375 0.1686 0.0270
2.6425 0.1904 0.0284
2.6475 0.1455 0.0254
2.6525 0.2176 0.0311
2.6575 0.1327 0.0247
2.6625 0.1557 0.0267
2.6675 0.1434 0.0242
2.6725 0.1178 0.0227
2.6775 0.1011 0.0211
2.6825 0.1324 0.0246
2.6875 0.1357 0.0248
2.6925 0.1315 0.0237
2.6975 0.1281 0.0234
0.2137 0.0156 0.0092
0.2142 0.0306 0.0138
0.2147 0.0240 0.0122
0.2152 0.0375 0.0143
0.2157 0.0223 0.0113
0.2162 0.0285 0.0129
0.2167 0.0246 0.0124
0.2172 0.0213 0.0107
0.2177 0.0050 0.0052
0.2182 0.0176 0.0104
0.2188 0.0237 0.0120
0.2193 0.0268 0.0121
0.2198 0.0254 0.0114
