1.0675 -0.0004 1.0000
1.0725 0.6522 0.0965
1.0775 0.6120 0.0834
1.0825 0.6561 0.0790
1.0875 0.6796 0.0702
1.0925 0.7356 0.0715
1.0975 0.7505 0.0700
1.1025 0.6978 0.0643
1.1075 0.7136 0.0599
1.1125 0.7252 0.0618
1.1175 0.8371 0.0641
1.1225 0.8725 0.0626
1.1275 0.7717 0.0571
1.1325 0.7354 0.0564
1.1375 0.7877 0.0584
1.1425 0.7933 0.0561
1.1475 0.7797 0.0569
1.1525 0.8109 0.0589
1.1575 0.9709 0.0630
1.1625 0.7698 0.0562
1.1675 0.9247 0.0621
1.1725 0.9489 0.0635
1.1775 0.8488 0.0583
1.1825 0.9674 0.0631
1.1875 0.9795 0.0636
1.1925 0.9114 0.0620
1.1975 1.0155 0.0631
1.2025 1.0322 0.0648
1.2075 1.1555 0.0697
1.2125 1.0883 0.0678
1.2175 1.2270 0.0692
1.2225 1.1665 0.0694
1.2275 1.1034 0.0677
1.2325 1.0779 0.0682
1.2375 1.2816 0.0703
1.2425 1.2026 0.0705
1.2475 1.2442 0.0726
1.2525 1.2772 0.0728
1.2575 1.2814 0.0719
1.2625 1.2504 0.0719
1.2675 1.3883 0.0762
1.2725 1.3302 0.0741
1.2775 1.3603 0.0730
1.2825 1.3869 0.0759
1.2875 1.2860 0.0743
1.2925 1.3986 0.0760
1.2975 1.3267 0.0730
1.3025 1.4804 0.0782
1.3075 1.5181 0.0800
1.3125 1.5423 0.0808
1.3175 1.5320 0.0775
1.3225 1.6217 0.0824
1.3275 1.7960 0.0871
1.3325 1.7530 0.0869
1.3375 1.7706 0.0838
1.3425 1.8190 0.0872
1.3475 1.8025 0.0870
1.3525 1.7150 0.0852
1.3575 1.7465 0.0838
1.3625 1.9516 0.0904
1.3675 1.8570 0.0883
1.3725 1.7122 0.0863
1.3775 1.8258 0.0870
1.3825 1.7844 0.0850
1.3875 1.8804 0.0896
1.3925 1.7610 0.0869
1.3975 2.1028 0.0954
1.4025 1.8499 0.0853
1.4075 1.9368 0.0900
1.4125 1.7930 0.0879
1.4175 1.8325 0.0889
1.4225 2.0775 0.0917
1.4275 1.8753 0.0882
1.4325 1.8490 0.0893
1.4375 1.9655 0.0915
1.4425 1.9911 0.0930
1.4475 2.0856 0.0912
1.4525 2.1054 0.0947
1.4575 1.8876 0.0904
1.4625 1.8164 0.0891
1.4675 2.1571 0.0942
1.4725 2.0034 0.0912
1.4775 1.7590 0.0871
1.4825 1.7240 0.0864
1.4875 1.9796 0.0930
1.4925 1.9241 0.0883
1.4975 2.0244 0.0922
1.5025 1.9305 0.0916
1.5075 1.8057 0.0892
1.5125 1.6030 0.0819
1.5175 1.7921 0.0862
1.5225 1.6785 0.0847
1.5275 1.6647 0.0851
1.5325 1.7019 0.0866
1.5375 1.6036 0.0816
1.5425 1.5428 0.0800
1.5475 1.6108 0.0841
1.5525 1.7918 0.0877
1.5575 1.4823 0.0812
1.5625 1.6631 0.0826
1.5675 1.5813 0.0817
1.5725 1.7857 0.0881
1.5775 1.4697 0.0803
1.5825 1.5261 0.0822
1.5875 1.4314 0.0764
1.5925 1.4514 0.0791
1.5975 1.3784 0.0771
1.6025 1.4091 0.0788
1.6075 1.3937 0.0785
1.6125 1.4205 0.0758
1.6175 1.3036 0.0748
1.6225 1.3846 0.0783
1.6275 1.4313 0.0794
1.6325 1.2969 0.0758
1.6375 1.2328 0.0709
1.6425 1.2415 0.0732
1.6475 1.2673 0.0739
1.6525 1.3644 0.0782
1.6575 1.0975 0.0698
1.6625 1.1608 0.0691
1.6675 1.0780 0.0685
1.6725 1.1145 0.0699
1.6775 1.1454 0.0710
1.6825 1.0395 0.0680
1.6875 1.0665 0.0667
1.6925 1.1281 0.0693
1.6975 0.9779 0.0653
1.7025 1.0044 0.0664
1.7075 1.0365 0.0686
1.7125 1.0846 0.0679
1.7175 0.9072 0.0619
1.7225 1.0608 0.0682
1.7275 0.9117 0.0635
1.7325 0.9731 0.0662
1.7375 0.9741 0.0651
1.7425 0.8721 0.0598
1.7475 1.0440 0.0680
1.7525 0.8763 0.0623
1.7575 0.9051 0.0639
1.7625 0.9020 0.0633
1.7675 0.8627 0.0598
1.7725 0.8647 0.0613
1.7775 0.9207 0.0637
1.7825 0.7842 0.0593
1.7875 0.8229 0.0605
1.7925 0.7800 0.0581
1.7975 0.8992 0.0620
1.8025 0.8614 0.0615
1.8075 0.8256 0.0604
1.8125 0.7053 0.0561
1.8175 0.8908 0.0638
1.8225 0.6527 0.0519
1.8275 0.8241 0.0600
1.8325 0.7589 0.0576
1.8375 0.6768 0.0551
1.8425 0.7144 0.0569
1.8475 0.7054 0.0553
1.8525 0.6947 0.0543
1.8575 0.6033 0.0516
1.8625 0.7278 0.0570
1.8675 0.6545 0.0545
1.8725 0.6874 0.0558
1.8775 0.6256 0.0511
1.8825 0.7728 0.0576
1.8875 0.6355 0.0531
1.8925 0.6997 0.0564
1.8975 0.6230 0.0532
1.9025 0.6683 0.0544
1.9075 0.6299 0.0514
1.9125 0.6992 0.0553
1.9175 0.7576 0.0583
1.9225 0.6544 0.0545
1.9275 0.6484 0.0540
1.9325 0.6203 0.0515
1.9375 0.5889 0.0505
1.9425 0.5636 0.0498
1.9475 0.7050 0.0566
1.9525 0.5679 0.0506
1.9575 0.5316 0.0492
1.9625 0.6160 0.0510
1.9675 0.5329 0.0482
1.9725 0.7033 0.0559
1.9775 0.6279 0.0531
1.9825 0.5136 0.0481
1.9875 0.6297 0.0540
1.9925 0.4766 0.0447
1.9975 0.6028 0.0513
2.0025 0.5537 0.0497
2.0075 0.5016 0.0474
2.0125 0.4407 0.0448
2.0175 0.5903 0.0524
2.0225 0.5229 0.0466
2.0275 0.5825 0.0501
2.0325 0.5272 0.0487
2.0375 0.4704 0.0459
2.0425 0.4515 0.0456
2.0475 0.5296 0.0490
2.0525 0.4380 0.0427
2.0575 0.4387 0.0440
2.0625 0.4636 0.0456
2.0675 0.4692 0.0463
2.0725 0.4781 0.0467
2.0775 0.4688 0.0453
2.0825 0.4587 0.0442
2.0875 0.4317 0.0439
2.0925 0.4379 0.0445
2.0975 0.4227 0.0436
2.1025 0.3787 0.0416
2.1075 0.4317 0.0434
2.1125 0.5164 0.0470
2.1175 0.4505 0.0448
2.1225 0.3209 0.0381
2.1275 0.3775 0.0412
2.1325 0.3542 0.0404
2.1375 0.4118 0.0425
2.1425 0.3327 0.0377
2.1475 0.4217 0.0433
2.1525 0.3950 0.0419
2.1575 0.4629 0.0461
2.1625 0.3540 0.0401
2.1675 0.3284 0.0382
2.1725 0.4072 0.0418
2.1775 0.3990 0.0418
2.1825 0.2893 0.0362
2.1875 0.4065 0.0429
2.1925 0.4221 0.0445
2.1975 0.4154 0.0424
2.2025 0.3516 0.0388
2.2075 0.2574 0.0338
2.2125 0.3706 0.0410
2.2175 0.3569 0.0402
2.2225 0.3513 0.0400
2.2275 0.2890 0.0358
2.2325 0.3832 0.0402
2.2375 0.3925 0.0419
2.2425 0.3434 0.0394
2.2475 0.2980 0.0370
2.2525 0.3681 0.0412
2.2575 0.3803 0.0406
2.2625 0.3876 0.0409
2.2675 0.3494 0.0393
2.2725 0.3284 0.0385
2.2775 0.2820 0.0361
2.2825 0.2653 0.0346
2.2875 0.4771 0.0459
2.2925 0.2860 0.0350
2.2975 0.3016 0.0366
2.3025 0.2906 0.0363
2.3075 0.2985 0.0367
2.3125 0.2742 0.0354
2.3175 0.3631 0.0399
2.3225 0.2946 0.0356
2.3275 0.3389 0.0390
2.3325 0.3129 0.0375
2.3375 0.2618 0.0344
2.3425 0.2799 0.0359
2.3475 0.2612 0.0338
2.3525 0.3630 0.0396
2.3575 0.3740 0.0406
2.3625 0.2811 0.0357
2.3675 0.3067 0.0375
2.3725 0.2993 0.0369
2.3775 0.3514 0.0391
2.3825 0.3441 0.0385
2.3875 0.3577 0.0401
2.3925 0.2603 0.0339
2.3975 0.3203 0.0383
2.4025 0.3157 0.0383
2.4075 0.3095 0.0365
2.4125 0.3126 0.0366
2.4175 0.2474 0.0331
2.4225 0.3014 0.0368
2.4275 0.3475 0.0399
2.4325 0.2492 0.0340
2.4375 0.3312 0.0375
2.4425 0.3153 0.0369
2.4475 0.2914 0.0359
2.4525 0.3050 0.0373
2.4575 0.3173 0.0380
2.4625 0.3001 0.0373
2.4675 0.2681 0.0336
2.4725 0.3114 0.0367
2.4775 0.2613 0.0341
2.4825 0.2333 0.0327
2.4875 0.2528 0.0338
2.4925 0.2768 0.0358
2.4975 0.2743 0.0338
2.5025 0.2707 0.0342
2.5075 0.2898 0.0360
2.5125 0.2759 0.0357
2.5175 0.3055 0.0371
2.5225 0.3153 0.0383
2.5275 0.2450 0.0317
2.5325 0.2742 0.0346
2.5375 0.2561 0.0340
2.5425 0.2974 0.0369
2.5475 0.2908 0.0361
2.5525 0.2339 0.0322
2.5575 0.2357 0.0315
2.5625 0.2304 0.0320
2.5675 0.2554 0.0338
2.5725 0.2272 0.0321
2.5775 0.2401 0.0330
2.5825 0.2286 0.0312
2.5875 0.2089 0.0299
2.5925 0.2751 0.0350
2.5975 0.2661 0.0347
2.6025 0.2086 0.0308
2.6075 0.2625 0.0348
2.6125 0.2373 0.0312
2.6175 0.2051 0.0299
2.6225 0.2464 0.0332
2.6275 0.2251 0.0318
2.6325 0.1533 0.0263
2.6375 0.2204 0.0309
2.6425 0.2285 0.0311
2.6475 0.2255 0.0316
2.6525 0.2044 0.0301
2.6575 0.1834 0.0290
2.6625 0.2017 0.0304
2.6675 0.1967 0.0284
2.6725 0.2098 0.0303
2.6775 0.2160 0.0309
2.6825 0.1463 0.0258
2.6875 0.1400 0.0252
2.6925 0.1487 0.0252
2.6975 0.0978 0.0204
0.2137 0.0156 0.0092
0.2142 0.0306 0.0138
0.2147 0.0240 0.0122
0.2152 0.0375 0.0143
0.2157 0.0223 0.0113
0.2162 0.0285 0.0129
0.2167 0.0246 0.0124
0.2172 0.0213 0.0107
0.2177 0.0050 0.0052
0.2182 0.0176 0.0104
0.2188 0.0237 0.0120
0.2193 0.0268 0.0121
0.2198 0.0254 0.0114
