1.0675 -0.0004 1.0000
1.0725 0.1409 0.0449
1.0775 0.1811 0.0454
1.0825 0.2183 0.0456
1.0875 0.1439 0.0323
1.0925 0.1871 0.0360
1.0975 0.1628 0.0326
1.1025 0.2066 0.0350
1.1075 0.1707 0.0293
1.1125 0.1412 0.0273
1.1175 0.1611 0.0281
1.1225 0.1832 0.0287
1.1275 0.1514 0.0253
1.1325 0.2375 0.0321
1.1375 0.2246 0.0312
1.1425 0.2139 0.0291
1.1475 0.3687 0.0391
1.1525 0.3970 0.0412
1.1575 0.4689 0.0437
1.1625 0.2866 0.0343
1.1675 0.2705 0.0336
1.1725 0.2295 0.0313
1.1775 0.2841 0.0337
1.1825 0.3083 0.0356
1.1875 0.3345 0.0372
1.1925 0.4304 0.0426
1.1975 0.2898 0.0337
1.2025 0.3248 0.0363
1.2075 0.3821 0.0401
1.2125 0.2525 0.0326
1.2175 0.2497 0.0312
1.2225 0.2682 0.0333
1.2275 0.2401 0.0316
1.2325 0.2498 0.0328
1.2375 0.3512 0.0368
1.2425 0.3344 0.0372
1.2475 0.2835 0.0347
1.2525 0.3482 0.0380
1.2575 0.3421 0.0371
1.2625 0.3008 0.0353
1.2675 0.4514 0.0435
1.2725 0.4912 0.0451
1.2775 0.3407 0.0366
1.2825 0.3860 0.0400
1.2875 0.3864 0.0407
1.2925 0.3751 0.0394
1.2975 0.5036 0.0450
1.3025 0.6346 0.0512
1.3075 0.9195 0.0623
1.3125 0.8254 0.0591
1.3175 0.7513 0.0543
1.3225 0.9450 0.0629
1.3275 2.1750 0.0958
1.3325 3.4429 0.1218
1.3375 2.3618 0.0968
1.3425 1.2199 0.0714
1.3475 0.6628 0.0528
1.3525 0.6224 0.0514
1.3575 0.5980 0.0490
1.3625 0.8623 0.0601
1.3675 1.7184 0.0850
1.3725 2.3609 0.1013
1.3775 2.0702 0.0927
1.3825 1.0965 0.0666
1.3875 0.6664 0.0534
1.3925 0.5577 0.0489
1.3975 0.5586 0.0492
1.4025 0.6254 0.0496
1.4075 0.5939 0.0498
1.4125 0.6633 0.0535
1.4175 1.0862 0.0684
1.4225 3.6743 0.1220
1.4275 7.6487 0.1781
1.4325 6.6952 0.1699
1.4375 2.9312 0.1117
1.4425 1.0517 0.0676
1.4475 0.7082 0.0531
1.4525 0.5058 0.0464
1.4575 0.5369 0.0482
1.4625 0.5544 0.0492
1.4675 0.5100 0.0458
1.4725 0.4893 0.0451
1.4775 0.5948 0.0506
1.4825 0.4111 0.0422
1.4875 0.5232 0.0478
1.4925 0.6237 0.0502
1.4975 0.6638 0.0528
1.5025 0.6167 0.0518
1.5075 0.6209 0.0523
1.5125 0.8111 0.0583
1.5175 0.7258 0.0549
1.5225 0.8503 0.0603
1.5275 1.2076 0.0725
1.5325 2.0192 0.0943
1.5375 3.1003 0.1134
1.5425 2.5115 0.1021
1.5475 1.6332 0.0846
1.5525 0.8308 0.0597
1.5575 0.5732 0.0505
1.5625 0.6019 0.0497
1.5675 0.5652 0.0488
1.5725 0.4343 0.0435
1.5775 0.4294 0.0434
1.5825 0.5074 0.0474
1.5875 0.4685 0.0437
1.5925 0.4910 0.0460
1.5975 0.4995 0.0464
1.6025 0.6912 0.0552
1.6075 0.6548 0.0538
1.6125 0.5463 0.0470
1.6175 0.6256 0.0518
1.6225 0.5527 0.0495
1.6275 0.4974 0.0468
1.6325 0.5484 0.0493
1.6375 0.4893 0.0447
1.6425 0.5646 0.0493
1.6475 0.6511 0.0530
1.6525 0.5068 0.0477
1.6575 0.6712 0.0546
1.6625 0.9421 0.0623
1.6675 1.4909 0.0805
1.6725 2.2594 0.0995
1.6775 3.7154 0.1279
1.6825 6.2365 0.1665
1.6875 8.2904 0.1859
1.6925 9.2692 0.1986
1.6975 6.7153 0.1712
1.7025 4.5938 0.1419
1.7075 3.1367 0.1194
1.7125 2.1319 0.0952
1.7175 1.4558 0.0784
1.7225 1.1749 0.0718
1.7275 0.9819 0.0659
1.7325 0.7967 0.0599
1.7375 0.6870 0.0547
1.7425 0.8069 0.0575
1.7475 0.6851 0.0551
1.7525 0.6943 0.0554
1.7575 0.5980 0.0519
1.7625 0.6529 0.0539
1.7675 0.5269 0.0468
1.7725 0.5645 0.0495
1.7775 0.5411 0.0488
1.7825 0.6231 0.0529
1.7875 0.5919 0.0513
1.7925 0.5846 0.0503
1.7975 0.6440 0.0525
1.8025 0.6021 0.0514
1.8075 0.5475 0.0492
1.8125 0.6696 0.0547
1.8175 0.5252 0.0490
1.8225 0.4917 0.0451
1.8275 0.4451 0.0441
1.8325 0.4933 0.0464
1.8375 0.4209 0.0434
1.8425 0.4568 0.0455
1.8475 0.4239 0.0428
1.8525 0.5084 0.0464
1.8575 0.4847 0.0462
1.8625 0.6291 0.0530
1.8675 0.5455 0.0498
1.8725 0.5158 0.0483
1.8775 0.5753 0.0490
1.8825 0.6183 0.0515
1.8875 0.5779 0.0507
1.8925 0.5592 0.0504
1.8975 0.4226 0.0438
1.9025 0.4338 0.0438
1.9075 0.4702 0.0444
1.9125 0.4893 0.0462
1.9175 0.4843 0.0466
1.9225 0.4275 0.0441
1.9275 0.3421 0.0393
1.9325 0.4062 0.0417
1.9375 0.4848 0.0458
1.9425 0.4759 0.0458
1.9475 0.5505 0.0500
1.9525 0.4731 0.0462
1.9575 0.4635 0.0459
1.9625 0.5195 0.0468
1.9675 0.6812 0.0545
1.9725 0.6540 0.0539
1.9775 0.5877 0.0513
1.9825 0.5814 0.0512
1.9875 0.5875 0.0522
1.9925 0.5105 0.0462
1.9975 0.4410 0.0439
2.0025 0.5087 0.0477
2.0075 0.5514 0.0497
2.0125 0.5634 0.0506
2.0175 0.6513 0.0550
2.0225 0.7797 0.0569
2.0275 0.7634 0.0574
2.0325 0.7798 0.0593
2.0375 0.5200 0.0483
2.0425 0.6124 0.0531
2.0475 0.6111 0.0526
2.0525 0.5287 0.0469
2.0575 0.5358 0.0486
2.0625 0.5300 0.0488
2.0675 0.4320 0.0444
2.0725 0.4272 0.0442
2.0775 0.3854 0.0411
2.0825 0.4123 0.0419
2.0875 0.3653 0.0404
2.0925 0.3341 0.0389
2.0975 0.3464 0.0395
2.1025 0.3558 0.0403
2.1075 0.3313 0.0380
2.1125 0.2815 0.0347
2.1175 0.3253 0.0381
2.1225 0.3348 0.0389
2.1275 0.3509 0.0398
2.1325 0.2943 0.0368
2.1375 0.2802 0.0351
2.1425 0.2344 0.0317
2.1475 0.2663 0.0344
2.1525 0.3061 0.0369
2.1575 0.1553 0.0267
2.1625 0.3045 0.0372
2.1675 0.2797 0.0353
2.1725 0.2652 0.0337
2.1775 0.2100 0.0303
2.1825 0.3253 0.0384
2.1875 0.2667 0.0347
2.1925 0.2579 0.0348
2.1975 0.2682 0.0341
2.2025 0.2442 0.0324
2.2075 0.2617 0.0341
2.2125 0.2984 0.0367
2.2175 0.2848 0.0359
2.2225 0.3280 0.0387
2.2275 0.2040 0.0301
2.2325 0.3499 0.0384
2.2375 0.3036 0.0368
2.2425 0.2713 0.0350
2.2475 0.2887 0.0364
2.2525 0.1932 0.0298
2.2575 0.2205 0.0309
2.2625 0.2066 0.0298
2.2675 0.1984 0.0296
2.2725 0.1886 0.0291
2.2775 0.2264 0.0324
2.2825 0.1797 0.0285
2.2875 0.1940 0.0293
2.2925 0.2175 0.0305
2.2975 0.1950 0.0294
2.3025 0.2219 0.0318
2.3075 0.2304 0.0323
2.3125 0.2879 0.0363
2.3175 0.2366 0.0322
2.3225 0.3417 0.0383
2.3275 0.2278 0.0320
2.3325 0.1831 0.0287
2.3375 0.2308 0.0323
2.3425 0.2477 0.0338
2.3475 0.1913 0.0289
2.3525 0.1685 0.0270
2.3575 0.1581 0.0264
2.3625 0.2721 0.0352
2.3675 0.1644 0.0275
2.3725 0.1766 0.0283
2.3775 0.2428 0.0325
2.3825 0.2280 0.0313
2.3875 0.2459 0.0332
2.3925 0.1897 0.0290
2.3975 0.1968 0.0300
2.4025 0.2178 0.0318
2.4075 0.2191 0.0307
2.4125 0.2696 0.0340
2.4175 0.2474 0.0331
2.4225 0.2064 0.0305
2.4275 0.2517 0.0340
2.4325 0.2399 0.0333
2.4375 0.1653 0.0265
2.4425 0.2416 0.0323
2.4475 0.2026 0.0299
2.4525 0.1956 0.0299
2.4575 0.2040 0.0304
2.4625 0.2630 0.0349
2.4675 0.2976 0.0354
2.4725 0.1985 0.0293
2.4775 0.2615 0.0341
2.4825 0.2057 0.0307
2.4875 0.1846 0.0289
2.4925 0.2216 0.0320
2.4975 0.1410 0.0242
2.5025 0.2406 0.0322
2.5075 0.2005 0.0299
2.5125 0.2112 0.0312
2.5175 0.2156 0.0312
2.5225 0.2176 0.0318
2.5275 0.2203 0.0300
2.5325 0.2572 0.0335
2.5375 0.2067 0.0305
2.5425 0.2240 0.0321
2.5475 0.2458 0.0332
2.5525 0.2293 0.0319
2.5575 0.1853 0.0280
2.5625 0.1729 0.0277
2.5675 0.2239 0.0317
2.5725 0.2227 0.0318
2.5775 0.2036 0.0304
2.5825 0.2323 0.0314
2.5875 0.1838 0.0281
2.5925 0.1863 0.0288
2.5975 0.2620 0.0344
2.6025 0.2401 0.0330
2.6075 0.2347 0.0329
2.6125 0.2374 0.0312
2.6175 0.2004 0.0296
2.6225 0.1655 0.0272
2.6275 0.1392 0.0250
2.6325 0.1398 0.0252
2.6375 0.2596 0.0335
2.6425 0.1395 0.0243
2.6475 0.1457 0.0254
2.6525 0.1866 0.0288
2.6575 0.1927 0.0297
2.6625 0.1557 0.0267
2.6675 0.1310 0.0232
2.6725 0.1046 0.0214
2.6775 0.1144 0.0225
2.6825 0.1231 0.0237
2.6875 0.0992 0.0212
2.6925 0.0977 0.0204
2.6975 0.1281 0.0234
0.2137 0.0156 0.0092
0.2142 0.0306 0.0138
0.2147 0.0240 0.0122
0.2152 0.0375 0.0143
0.2157 0.0223 0.0113
0.2162 0.0285 0.0129
0.2167 0.0246 0.0124
0.2172 0.0213 0.0107
0.2177 0.0050 0.0052
0.2182 0.0176 0.0104
0.2188 0.0237 0.0120
0.2193 0.0268 0.0121
0.2198 0.0254 0.0114
