1.0675 0.4978 0.3528
1.0725 0.6653 0.0975
1.0775 0.5657 0.0802
1.0825 0.6185 0.0767
1.0875 0.7081 0.0716
1.0925 0.7145 0.0704
1.0975 0.8154 0.0730
1.1025 0.6970 0.0642
1.1075 0.7329 0.0607
1.1125 0.6626 0.0591
1.1175 0.7098 0.0590
1.1225 0.8282 0.0609
1.1275 0.7884 0.0577
1.1325 0.7481 0.0569
1.1375 0.8396 0.0603
1.1425 0.8369 0.0576
1.1475 0.9332 0.0622
1.1525 0.8286 0.0595
1.1575 0.9379 0.0619
1.1625 0.8890 0.0604
1.1675 0.8781 0.0605
1.1725 0.8850 0.0614
1.1775 0.8524 0.0584
1.1825 0.8187 0.0580
1.1875 0.8967 0.0609
1.1925 1.0162 0.0655
1.1975 0.9840 0.0621
1.2025 1.0689 0.0659
1.2075 1.1549 0.0697
1.2125 1.0460 0.0664
1.2175 1.2770 0.0706
1.2225 1.0913 0.0672
1.2275 1.0327 0.0655
1.2325 1.0776 0.0682
1.2375 1.2515 0.0695
1.2425 1.1885 0.0701
1.2475 1.1560 0.0700
1.2525 1.2891 0.0731
1.2575 1.3412 0.0735
1.2625 1.2842 0.0728
1.2675 1.4475 0.0778
1.2725 1.3089 0.0735
1.2775 1.3879 0.0738
1.2825 1.4704 0.0781
1.2875 1.4739 0.0795
1.2925 1.4437 0.0772
1.2975 1.6278 0.0809
1.3025 1.5341 0.0796
1.3075 1.3320 0.0750
1.3125 1.4911 0.0795
1.3175 1.4613 0.0757
1.3225 1.5182 0.0797
1.3275 1.6431 0.0833
1.3325 1.6504 0.0843
1.3375 1.7480 0.0833
1.3425 1.6848 0.0840
1.3475 1.6792 0.0840
1.3525 1.8259 0.0880
1.3575 1.6942 0.0825
1.3625 1.8095 0.0870
1.3675 1.8581 0.0884
1.3725 1.9086 0.0911
1.3775 1.9177 0.0892
1.3825 1.8090 0.0856
1.3875 2.0001 0.0925
1.3925 1.8432 0.0889
1.3975 1.8868 0.0904
1.4025 1.8347 0.0850
1.4075 1.8112 0.0871
1.4125 2.0129 0.0931
1.4175 2.0317 0.0936
1.4225 1.9248 0.0883
1.4275 1.9505 0.0900
1.4325 1.9095 0.0907
1.4375 1.9225 0.0904
1.4425 1.9603 0.0923
1.4475 1.9617 0.0884
1.4525 2.1094 0.0947
1.4575 1.9627 0.0922
1.4625 1.9211 0.0916
1.4675 1.8973 0.0884
1.4725 1.9951 0.0910
1.4775 2.0002 0.0929
1.4825 2.0842 0.0950
1.4875 1.9136 0.0914
1.4925 1.8067 0.0855
1.4975 1.8692 0.0886
1.5025 1.7864 0.0881
1.5075 1.9562 0.0928
1.5125 1.6480 0.0830
1.5175 1.7094 0.0842
1.5225 1.9051 0.0902
1.5275 1.6773 0.0854
1.5325 1.4680 0.0804
1.5375 1.5670 0.0806
1.5425 1.5786 0.0809
1.5475 1.5713 0.0830
1.5525 1.4392 0.0786
1.5575 1.4661 0.0807
1.5625 1.4756 0.0778
1.5675 1.4249 0.0775
1.5725 1.6116 0.0837
1.5775 1.4457 0.0796
1.5825 1.3086 0.0761
1.5875 1.4030 0.0757
1.5925 1.3314 0.0758
1.5975 1.3009 0.0749
1.6025 1.4091 0.0788
1.6075 1.3753 0.0780
1.6125 1.2714 0.0717
1.6175 1.2017 0.0718
1.6225 1.3455 0.0772
1.6275 1.2195 0.0733
1.6325 1.3538 0.0774
1.6375 1.1017 0.0671
1.6425 1.2286 0.0728
1.6475 1.2161 0.0724
1.6525 1.1257 0.0710
1.6575 1.1693 0.0721
1.6625 1.1107 0.0676
1.6675 1.1524 0.0708
1.6725 1.1490 0.0710
1.6775 1.0751 0.0688
1.6825 1.1377 0.0711
1.6875 1.0290 0.0655
1.6925 0.9577 0.0638
1.6975 1.0825 0.0688
1.7025 1.0353 0.0674
1.7075 1.0951 0.0706
1.7125 0.9821 0.0646
1.7175 0.9371 0.0629
1.7225 0.9954 0.0661
1.7275 0.9202 0.0638
1.7325 1.0170 0.0677
1.7375 0.9736 0.0651
1.7425 0.9539 0.0625
1.7475 0.9555 0.0650
1.7525 0.9780 0.0658
1.7575 0.8147 0.0606
1.7625 0.8835 0.0627
1.7675 0.9208 0.0618
1.7725 0.8953 0.0624
1.7775 0.7880 0.0589
1.7825 0.7717 0.0588
1.7875 0.7295 0.0569
1.7925 0.8019 0.0589
1.7975 0.8151 0.0590
1.8025 0.8250 0.0602
1.8075 0.7109 0.0561
1.8125 0.7773 0.0589
1.8175 0.7669 0.0592
1.8225 0.6525 0.0519
1.8275 0.7423 0.0569
1.8325 0.7592 0.0576
1.8375 0.7124 0.0565
1.8425 0.7506 0.0583
1.8475 0.8007 0.0589
1.8525 0.8003 0.0582
1.8575 0.7177 0.0562
1.8625 0.5404 0.0491
1.8675 0.6821 0.0557
1.8725 0.6516 0.0543
1.8775 0.7045 0.0542
1.8825 0.6268 0.0519
1.8875 0.6628 0.0543
1.8925 0.6541 0.0545
1.8975 0.7189 0.0572
1.9025 0.6644 0.0542
1.9075 0.6084 0.0506
1.9125 0.5987 0.0511
1.9175 0.6679 0.0547
1.9225 0.6186 0.0530
1.9275 0.7029 0.0563
1.9325 0.5907 0.0502
1.9375 0.6231 0.0519
1.9425 0.5952 0.0512
1.9475 0.6139 0.0528
1.9525 0.4962 0.0473
1.9575 0.5867 0.0516
1.9625 0.5445 0.0479
1.9675 0.4892 0.0462
1.9725 0.5697 0.0503
1.9775 0.5740 0.0507
1.9825 0.5542 0.0500
1.9875 0.4352 0.0449
1.9925 0.4811 0.0449
1.9975 0.4938 0.0464
2.0025 0.5312 0.0487
2.0075 0.6190 0.0527
2.0125 0.5909 0.0518
2.0175 0.5482 0.0505
2.0225 0.4642 0.0439
2.0275 0.5563 0.0490
2.0325 0.5226 0.0485
2.0375 0.5336 0.0489
2.0425 0.4977 0.0479
2.0475 0.4436 0.0448
2.0525 0.4254 0.0421
2.0575 0.4556 0.0448
2.0625 0.4273 0.0438
2.0675 0.4597 0.0458
2.0725 0.4096 0.0432
2.0775 0.3938 0.0416
2.0825 0.4460 0.0436
2.0875 0.4539 0.0450
2.0925 0.3800 0.0415
2.0975 0.3999 0.0424
2.1025 0.3742 0.0413
2.1075 0.4272 0.0432
2.1125 0.3328 0.0377
2.1175 0.4234 0.0435
2.1225 0.3703 0.0409
2.1275 0.4048 0.0427
2.1325 0.4598 0.0460
2.1375 0.4377 0.0438
2.1425 0.3968 0.0412
2.1475 0.4576 0.0451
2.1525 0.4173 0.0431
2.1575 0.4809 0.0470
2.1625 0.4455 0.0450
2.1675 0.3997 0.0421
2.1725 0.4284 0.0429
2.1775 0.3942 0.0416
2.1825 0.3574 0.0402
2.1875 0.3794 0.0414
2.1925 0.4647 0.0467
2.1975 0.4459 0.0439
2.2025 0.4414 0.0435
2.2075 0.4042 0.0424
2.2125 0.2981 0.0367
2.2175 0.3390 0.0392
2.2225 0.3877 0.0421
2.2275 0.3418 0.0390
2.2325 0.3711 0.0396
2.2375 0.3391 0.0389
2.2425 0.3981 0.0424
2.2475 0.3717 0.0413
2.2525 0.3267 0.0388
2.2575 0.3155 0.0370
2.2625 0.3619 0.0395
2.2675 0.2830 0.0354
2.2725 0.3011 0.0368
2.2775 0.3286 0.0390
2.2825 0.3331 0.0387
2.2875 0.3312 0.0383
2.2925 0.3158 0.0367
2.2975 0.3018 0.0366
2.3025 0.3223 0.0383
2.3075 0.3122 0.0376
2.3125 0.3294 0.0388
2.3175 0.3670 0.0401
2.3225 0.2511 0.0328
2.3275 0.2988 0.0366
2.3325 0.3393 0.0390
2.3375 0.3025 0.0370
2.3425 0.3219 0.0385
2.3475 0.2742 0.0346
2.3525 0.3628 0.0396
2.3575 0.2683 0.0344
2.3625 0.2903 0.0363
2.3675 0.3704 0.0412
2.3725 0.2625 0.0345
2.3775 0.2515 0.0331
2.3825 0.3354 0.0380
2.3875 0.2952 0.0364
2.3925 0.3004 0.0365
2.3975 0.3111 0.0378
2.4025 0.3063 0.0377
2.4075 0.2924 0.0355
2.4125 0.2435 0.0323
2.4175 0.3136 0.0373
2.4225 0.2879 0.0360
2.4275 0.3387 0.0394
2.4325 0.4016 0.0431
2.4375 0.2204 0.0306
2.4425 0.2593 0.0335
2.4475 0.2736 0.0348
2.4525 0.2505 0.0338
2.4575 0.3445 0.0396
2.4625 0.1891 0.0296
2.4675 0.3146 0.0364
2.4725 0.2634 0.0338
2.4775 0.3149 0.0374
2.4825 0.2699 0.0352
2.4875 0.2890 0.0362
2.4925 0.2122 0.0313
2.4975 0.2451 0.0320
2.5025 0.2667 0.0339
2.5075 0.3117 0.0373
2.5125 0.3771 0.0417
2.5175 0.2566 0.0340
2.5225 0.2597 0.0348
2.5275 0.2900 0.0345
2.5325 0.2483 0.0329
2.5375 0.2604 0.0342
2.5425 0.2378 0.0330
2.5475 0.2504 0.0335
2.5525 0.2336 0.0322
2.5575 0.2946 0.0353
2.5625 0.2838 0.0355
2.5675 0.2375 0.0326
2.5725 0.2411 0.0331
2.5775 0.2806 0.0357
2.5825 0.2452 0.0323
2.5875 0.2223 0.0309
2.5925 0.2442 0.0329
2.5975 0.2529 0.0338
2.6025 0.1996 0.0301
2.6075 0.2118 0.0312
2.6125 0.2125 0.0295
2.6175 0.2136 0.0305
2.6225 0.1836 0.0287
2.6275 0.1572 0.0266
2.6325 0.2036 0.0303
2.6375 0.2160 0.0306
2.6425 0.2116 0.0299
2.6475 0.2032 0.0300
2.6525 0.2311 0.0320
2.6575 0.2157 0.0315
2.6625 0.2108 0.0311
2.6675 0.1845 0.0275
2.6725 0.1615 0.0266
2.6775 0.1895 0.0289
2.6825 0.1780 0.0285
2.6875 0.2079 0.0307
2.6925 0.1362 0.0241
2.6975 0.1108 0.0218
0.2137 0.0156 0.0092
0.2142 0.0306 0.0138
0.2147 0.0240 0.0122
0.2152 0.0375 0.0143
0.2157 0.0223 0.0113
0.2162 0.0285 0.0129
0.2167 0.0246 0.0124
0.2172 0.0213 0.0107
0.2177 0.0050 0.0052
0.2182 0.0176 0.0104
0.2188 0.0237 0.0120
0.2193 0.0268 0.0121
0.2198 0.0254 0.0114
