1.0675 0.4978 0.3528
1.0725 0.5384 0.0877
1.0775 0.5089 0.0760
1.0825 0.6834 0.0807
1.0875 0.7439 0.0734
1.0925 0.7628 0.0728
1.0975 0.8092 0.0727
1.1025 0.7573 0.0669
1.1075 0.7484 0.0613
1.1125 0.7670 0.0635
1.1175 0.8077 0.0629
1.1225 0.7968 0.0598
1.1275 0.7710 0.0570
1.1325 0.8175 0.0595
1.1375 0.7618 0.0574
1.1425 0.8760 0.0590
1.1475 0.8129 0.0581
1.1525 0.9348 0.0632
1.1575 0.9343 0.0618
1.1625 0.8232 0.0581
1.1675 0.8494 0.0595
1.1725 0.7914 0.0580
1.1775 0.8963 0.0599
1.1825 0.9707 0.0632
1.1875 1.0037 0.0644
1.1925 0.9621 0.0637
1.1975 1.0824 0.0652
1.2025 0.9753 0.0630
1.2075 1.1474 0.0694
1.2125 1.1640 0.0701
1.2175 1.1372 0.0666
1.2225 1.2399 0.0716
1.2275 1.1902 0.0703
1.2325 1.0088 0.0659
1.2375 1.2089 0.0683
1.2425 1.3297 0.0741
1.2475 1.2701 0.0734
1.2525 1.0244 0.0652
1.2575 1.1641 0.0685
1.2625 1.2514 0.0719
1.2675 1.1491 0.0693
1.2725 1.3013 0.0733
1.2775 1.3251 0.0721
1.2825 1.3902 0.0760
1.2875 1.4867 0.0799
1.2925 1.4401 0.0771
1.2975 1.4949 0.0775
1.3025 1.6410 0.0823
1.3075 1.5774 0.0816
1.3125 1.6523 0.0837
1.3175 1.4623 0.0757
1.3225 1.5566 0.0807
1.3275 1.4546 0.0783
1.3325 1.7110 0.0859
1.3375 1.7398 0.0831
1.3425 1.7479 0.0855
1.3475 1.8004 0.0870
1.3525 1.8006 0.0873
1.3575 1.8621 0.0865
1.3625 1.9221 0.0897
1.3675 1.7607 0.0860
1.3725 1.9388 0.0918
1.3775 1.9879 0.0908
1.3825 1.9548 0.0890
1.3875 1.8549 0.0890
1.3925 2.0012 0.0927
1.3975 1.9468 0.0918
1.4025 2.0588 0.0900
1.4075 2.0292 0.0921
1.4125 1.8742 0.0899
1.4175 1.8158 0.0885
1.4225 2.1464 0.0932
1.4275 2.0082 0.0913
1.4325 1.9263 0.0911
1.4375 2.0167 0.0926
1.4425 2.0310 0.0940
1.4475 1.9266 0.0876
1.4525 1.9736 0.0916
1.4575 2.0695 0.0947
1.4625 1.8689 0.0903
1.4675 1.8727 0.0878
1.4725 1.9254 0.0894
1.4775 1.8797 0.0900
1.4825 1.8937 0.0905
1.4875 1.8392 0.0896
1.4925 1.9240 0.0883
1.4975 1.8941 0.0892
1.5025 1.8340 0.0893
1.5075 1.6781 0.0860
1.5125 1.6857 0.0840
1.5175 1.6802 0.0835
1.5225 1.6921 0.0850
1.5275 1.8247 0.0891
1.5325 1.6306 0.0848
1.5375 1.8324 0.0872
1.5425 1.5007 0.0789
1.5475 1.6019 0.0838
1.5525 1.5685 0.0820
1.5575 1.4745 0.0810
1.5625 1.5327 0.0793
1.5675 1.4376 0.0779
1.5725 1.3766 0.0774
1.5775 1.6484 0.0850
1.5825 1.6099 0.0844
1.5875 1.3860 0.0752
1.5925 1.5878 0.0827
1.5975 1.4346 0.0786
1.6025 1.4142 0.0789
1.6075 1.4110 0.0790
1.6125 1.2677 0.0716
1.6175 1.3734 0.0768
1.6225 1.3808 0.0782
1.6275 1.3388 0.0768
1.6325 1.1458 0.0712
1.6375 1.1674 0.0690
1.6425 1.2975 0.0748
1.6475 1.2071 0.0721
1.6525 1.1174 0.0708
1.6575 1.0897 0.0696
1.6625 1.1934 0.0701
1.6675 1.1084 0.0694
1.6725 1.1626 0.0714
1.6775 1.1454 0.0710
1.6825 1.0354 0.0678
1.6875 1.1793 0.0701
1.6925 1.0133 0.0657
1.6975 1.0214 0.0668
1.7025 0.9739 0.0654
1.7075 1.0174 0.0680
1.7125 1.0924 0.0682
1.7175 0.9108 0.0620
1.7225 0.9029 0.0629
1.7275 0.9867 0.0661
1.7325 0.9405 0.0651
1.7375 1.0087 0.0662
1.7425 0.8890 0.0604
1.7475 0.9115 0.0635
1.7525 0.8714 0.0621
1.7575 0.8732 0.0627
1.7625 0.8885 0.0628
1.7675 0.9378 0.0624
1.7725 0.8781 0.0618
1.7775 0.8940 0.0628
1.7825 0.8298 0.0610
1.7875 0.8671 0.0621
1.7925 0.9547 0.0643
1.7975 0.8222 0.0593
1.8025 0.7552 0.0576
1.8075 0.8609 0.0617
1.8125 0.7055 0.0561
1.8175 0.7215 0.0574
1.8225 0.8504 0.0593
1.8275 0.7368 0.0567
1.8325 0.7245 0.0562
1.8375 0.7893 0.0595
1.8425 0.6286 0.0533
1.8475 0.7138 0.0556
1.8525 0.6563 0.0527
1.8575 0.7532 0.0576
1.8625 0.6923 0.0556
1.8675 0.6823 0.0557
1.8725 0.6969 0.0562
1.8775 0.7463 0.0558
1.8825 0.7211 0.0556
1.8875 0.7563 0.0580
1.8925 0.7130 0.0569
1.8975 0.6550 0.0546
1.9025 0.7261 0.0567
1.9075 0.6719 0.0531
1.9125 0.5990 0.0511
1.9175 0.6449 0.0538
1.9225 0.7093 0.0568
1.9275 0.6669 0.0548
1.9325 0.5388 0.0480
1.9375 0.6758 0.0541
1.9425 0.6435 0.0532
1.9475 0.6325 0.0536
1.9525 0.5767 0.0510
1.9575 0.4820 0.0468
1.9625 0.6038 0.0505
1.9675 0.6287 0.0524
1.9725 0.5246 0.0483
1.9775 0.5430 0.0493
1.9825 0.5857 0.0514
1.9875 0.6298 0.0540
1.9925 0.5441 0.0477
1.9975 0.5459 0.0488
2.0025 0.5809 0.0509
2.0075 0.4977 0.0472
2.0125 0.5454 0.0498
2.0175 0.5158 0.0490
2.0225 0.6014 0.0500
2.0275 0.4998 0.0464
2.0325 0.4503 0.0450
2.0375 0.4439 0.0446
2.0425 0.4923 0.0476
2.0475 0.4888 0.0470
2.0525 0.4296 0.0423
2.0575 0.4603 0.0450
2.0625 0.5391 0.0492
2.0675 0.4831 0.0470
2.0725 0.4238 0.0440
2.0775 0.4734 0.0456
2.0825 0.4675 0.0446
2.0875 0.4094 0.0428
2.0925 0.4787 0.0465
2.0975 0.3915 0.0420
2.1025 0.4973 0.0477
2.1075 0.4142 0.0425
2.1125 0.4187 0.0423
2.1175 0.4146 0.0430
2.1225 0.5062 0.0479
2.1275 0.4364 0.0443
2.1325 0.3587 0.0407
2.1375 0.5393 0.0486
2.1425 0.4224 0.0425
2.1475 0.4439 0.0444
2.1525 0.3995 0.0421
2.1575 0.4534 0.0456
2.1625 0.3583 0.0404
2.1675 0.4220 0.0433
2.1725 0.3814 0.0405
2.1775 0.4077 0.0423
2.1825 0.3889 0.0419
2.1875 0.4069 0.0429
2.1925 0.3377 0.0398
2.1975 0.4411 0.0437
2.2025 0.3301 0.0376
2.2075 0.3731 0.0407
2.2125 0.3392 0.0392
2.2175 0.4023 0.0427
2.2225 0.2825 0.0359
2.2275 0.4264 0.0435
2.2325 0.4258 0.0424
2.2375 0.3702 0.0407
2.2425 0.3702 0.0409
2.2475 0.3029 0.0373
2.2525 0.3360 0.0393
2.2575 0.2896 0.0354
2.2625 0.3486 0.0388
2.2675 0.3447 0.0391
2.2725 0.3327 0.0387
2.2775 0.3972 0.0429
2.2825 0.3333 0.0387
2.2875 0.3976 0.0419
2.2925 0.3413 0.0382
2.2975 0.3109 0.0372
2.3025 0.2946 0.0366
2.3075 0.3480 0.0397
2.3125 0.2926 0.0366
2.3175 0.3016 0.0364
2.3225 0.3753 0.0401
2.3275 0.2674 0.0346
2.3325 0.2772 0.0353
2.3375 0.2391 0.0329
2.3425 0.2943 0.0368
2.3475 0.3958 0.0416
2.3525 0.2893 0.0354
2.3575 0.2770 0.0349
2.3625 0.3084 0.0374
2.3675 0.3567 0.0404
2.3725 0.2723 0.0352
2.3775 0.3383 0.0384
2.3825 0.2408 0.0322
2.3875 0.3395 0.0390
2.3925 0.2779 0.0351
2.3975 0.3067 0.0375
2.4025 0.3346 0.0394
2.4075 0.2711 0.0342
2.4125 0.2954 0.0356
2.4175 0.3181 0.0375
2.4225 0.2377 0.0327
2.4275 0.2792 0.0358
2.4325 0.2585 0.0346
2.4375 0.2930 0.0353
2.4425 0.2851 0.0351
2.4475 0.3223 0.0378
2.4525 0.3556 0.0403
2.4575 0.2766 0.0355
2.4625 0.2908 0.0367
2.4675 0.3228 0.0368
2.4725 0.2376 0.0321
2.4775 0.2656 0.0344
2.4825 0.3295 0.0389
2.4875 0.3115 0.0375
2.4925 0.3191 0.0384
2.4975 0.3201 0.0365
2.5025 0.3012 0.0360
2.5075 0.2449 0.0331
2.5125 0.2436 0.0335
2.5175 0.2792 0.0355
2.5225 0.2918 0.0368
2.5275 0.2781 0.0338
2.5325 0.2527 0.0332
2.5375 0.2695 0.0348
2.5425 0.2653 0.0349
2.5475 0.1875 0.0290
2.5525 0.2335 0.0321
2.5575 0.3160 0.0365
2.5625 0.2666 0.0344
2.5675 0.2868 0.0359
2.5725 0.2642 0.0347
2.5775 0.1989 0.0301
2.5825 0.2960 0.0355
2.5875 0.3415 0.0383
2.5925 0.2617 0.0341
2.5975 0.2211 0.0316
2.6025 0.2587 0.0343
2.6075 0.2714 0.0354
2.6125 0.2457 0.0317
2.6175 0.2441 0.0326
2.6225 0.2015 0.0301
2.6275 0.1755 0.0281
2.6325 0.2032 0.0303
2.6375 0.2249 0.0312
2.6425 0.1819 0.0278
2.6475 0.2076 0.0303
2.6525 0.1909 0.0291
2.6575 0.1788 0.0286
2.6625 0.2382 0.0331
2.6675 0.2048 0.0290
2.6725 0.1833 0.0283
2.6775 0.1807 0.0282
2.6825 0.2147 0.0313
2.6875 0.1763 0.0282
2.6925 0.1233 0.0229
2.6975 0.1792 0.0277
0.2137 0.0156 0.0092
0.2142 0.0306 0.0138
0.2147 0.0240 0.0122
0.2152 0.0375 0.0143
0.2157 0.0223 0.0113
0.2162 0.0285 0.0129
0.2167 0.0246 0.0124
0.2172 0.0213 0.0107
0.2177 0.0050 0.0052
0.2182 0.0176 0.0104
0.2188 0.0237 0.0120
0.2193 0.0268 0.0121
0.2198 0.0254 0.0114
