1.0675 0.4931 0.3511
1.0725 0.7358 0.1025
1.0775 0.6893 0.0885
1.0825 0.7599 0.0851
1.0875 0.6433 0.0683
1.0925 0.6585 0.0676
1.0975 0.6587 0.0656
1.1025 0.6443 0.0617
1.1075 0.7483 0.0613
1.1125 0.7517 0.0629
1.1175 0.7933 0.0624
1.1225 0.6757 0.0550
1.1275 0.7590 0.0566
1.1325 0.7699 0.0577
1.1375 0.7924 0.0586
1.1425 0.7496 0.0545
1.1475 0.7917 0.0573
1.1525 0.6280 0.0518
1.1575 0.8854 0.0601
1.1625 0.8485 0.0590
1.1675 0.8496 0.0595
1.1725 0.8940 0.0617
1.1775 0.8599 0.0586
1.1825 0.9133 0.0613
1.1875 0.9256 0.0618
1.1925 0.9698 0.0640
1.1975 0.9411 0.0608
1.2025 1.0245 0.0645
1.2075 1.0918 0.0677
1.2125 1.0707 0.0672
1.2175 1.0547 0.0642
1.2225 1.0871 0.0670
1.2275 1.1118 0.0679
1.2325 1.1076 0.0691
1.2375 1.2274 0.0688
1.2425 1.3428 0.0745
1.2475 1.2281 0.0721
1.2525 1.2021 0.0706
1.2575 1.1483 0.0680
1.2625 1.2633 0.0723
1.2675 1.3219 0.0744
1.2725 1.2388 0.0715
1.2775 1.3763 0.0735
1.2825 1.3330 0.0744
1.2875 1.2931 0.0745
1.2925 1.4657 0.0778
1.2975 1.4905 0.0774
1.3025 1.5305 0.0795
1.3075 1.4172 0.0773
1.3125 1.4155 0.0774
1.3175 1.7832 0.0836
1.3225 1.5842 0.0814
1.3275 1.6695 0.0839
1.3325 1.7580 0.0870
1.3375 1.6958 0.0820
1.3425 1.7860 0.0864
1.3475 1.8012 0.0870
1.3525 1.6099 0.0826
1.3575 1.8262 0.0856
1.3625 1.7170 0.0848
1.3675 1.9079 0.0895
1.3725 1.8787 0.0904
1.3775 1.8306 0.0872
1.3825 1.9471 0.0888
1.3875 2.0471 0.0935
1.3925 1.8896 0.0901
1.3975 1.9250 0.0913
1.4025 2.0313 0.0894
1.4075 1.9375 0.0900
1.4125 1.8839 0.0901
1.4175 2.0186 0.0933
1.4225 2.0856 0.0919
1.4275 1.9876 0.0908
1.4325 2.0123 0.0931
1.4375 2.0761 0.0940
1.4425 2.0093 0.0935
1.4475 2.0469 0.0903
1.4525 2.0627 0.0937
1.4575 1.9304 0.0914
1.4625 1.8870 0.0908
1.4675 2.0837 0.0926
1.4725 2.0411 0.0920
1.4775 2.0265 0.0935
1.4825 1.9188 0.0911
1.4875 1.9049 0.0912
1.4925 1.9121 0.0880
1.4975 1.9915 0.0915
1.5025 1.8816 0.0904
1.5075 1.8853 0.0911
1.5125 1.8705 0.0885
1.5175 1.7847 0.0861
1.5225 1.7474 0.0864
1.5275 1.5650 0.0825
1.5325 1.6564 0.0854
1.5375 1.6978 0.0839
1.5425 1.5796 0.0810
1.5475 1.6595 0.0853
1.5525 1.6935 0.0853
1.5575 1.7454 0.0881
1.5625 1.6713 0.0828
1.5675 1.6650 0.0838
1.5725 1.5378 0.0818
1.5775 1.4284 0.0792
1.5825 1.3974 0.0786
1.5875 1.4600 0.0772
1.5925 1.5717 0.0823
1.5975 1.4820 0.0799
1.6025 1.4974 0.0812
1.6075 1.4239 0.0794
1.6125 1.2350 0.0707
1.6175 1.4287 0.0783
1.6225 1.2078 0.0731
1.6275 1.3569 0.0773
1.6325 1.2746 0.0751
1.6375 1.3390 0.0739
1.6425 1.2032 0.0720
1.6475 1.2804 0.0743
1.6525 1.2469 0.0748
1.6575 1.3827 0.0784
1.6625 1.1645 0.0692
1.6675 1.2610 0.0740
1.6725 1.1755 0.0718
1.6775 1.1859 0.0723
1.6825 1.1596 0.0718
1.6875 1.2544 0.0723
1.6925 1.1026 0.0685
1.6975 1.0217 0.0668
1.7025 0.9738 0.0654
1.7075 1.0180 0.0680
1.7125 0.9273 0.0628
1.7175 0.8945 0.0614
1.7225 0.9738 0.0654
1.7275 0.9956 0.0664
1.7325 0.9685 0.0661
1.7375 0.9220 0.0633
1.7425 0.9787 0.0633
1.7475 1.0352 0.0677
1.7525 0.9690 0.0655
1.7575 0.8374 0.0614
1.7625 0.8841 0.0627
1.7675 0.8967 0.0610
1.7725 0.9564 0.0645
1.7775 0.9120 0.0634
1.7825 0.8293 0.0610
1.7875 0.8979 0.0632
1.7925 0.7371 0.0565
1.7975 0.8518 0.0603
1.8025 0.7997 0.0592
1.8075 0.7374 0.0571
1.8125 0.7460 0.0577
1.8175 0.8356 0.0618
1.8225 0.7185 0.0545
1.8275 0.8205 0.0599
1.8325 0.8085 0.0594
1.8375 0.8286 0.0610
1.8425 0.6969 0.0562
1.8475 0.8001 0.0589
1.8525 0.7209 0.0553
1.8575 0.7621 0.0579
1.8625 0.7723 0.0587
1.8675 0.6545 0.0545
1.8725 0.7918 0.0599
1.8775 0.6585 0.0524
1.8825 0.6399 0.0524
1.8875 0.6938 0.0555
1.8925 0.6680 0.0551
1.8975 0.6688 0.0551
1.9025 0.5711 0.0503
1.9075 0.6385 0.0518
1.9125 0.6558 0.0535
1.9175 0.6948 0.0558
1.9225 0.6007 0.0523
1.9275 0.6489 0.0541
1.9325 0.5992 0.0506
1.9375 0.5583 0.0492
1.9425 0.6215 0.0523
1.9475 0.5228 0.0487
1.9525 0.5953 0.0518
1.9575 0.6362 0.0538
1.9625 0.5190 0.0468
1.9675 0.5812 0.0504
1.9725 0.5742 0.0505
1.9775 0.6188 0.0527
1.9825 0.5775 0.0510
1.9875 0.5099 0.0486
1.9925 0.5147 0.0464
1.9975 0.5285 0.0480
2.0025 0.5941 0.0515
2.0075 0.5381 0.0491
2.0125 0.6043 0.0524
2.0175 0.5116 0.0488
2.0225 0.4936 0.0453
2.0275 0.5517 0.0488
2.0325 0.5041 0.0477
2.0375 0.4437 0.0446
2.0425 0.5670 0.0511
2.0475 0.4299 0.0441
2.0525 0.5342 0.0472
2.0575 0.4438 0.0442
2.0625 0.5083 0.0477
2.0675 0.4828 0.0470
2.0725 0.4918 0.0474
2.0775 0.4730 0.0455
2.0825 0.3782 0.0401
2.0875 0.3962 0.0421
2.0925 0.4383 0.0445
2.0975 0.4813 0.0466
2.1025 0.3829 0.0418
2.1075 0.3746 0.0404
2.1125 0.4099 0.0419
2.1175 0.4684 0.0457
2.1225 0.3977 0.0424
2.1275 0.4498 0.0450
2.1325 0.3911 0.0425
2.1375 0.4736 0.0456
2.1425 0.4393 0.0433
2.1475 0.4085 0.0426
2.1525 0.4262 0.0435
2.1575 0.4078 0.0432
2.1625 0.4541 0.0454
2.1675 0.4395 0.0442
2.1725 0.3685 0.0398
2.1775 0.4255 0.0432
2.1825 0.4609 0.0457
2.1875 0.4568 0.0455
2.1925 0.3237 0.0390
2.1975 0.3638 0.0397
2.2025 0.4115 0.0420
2.2075 0.3641 0.0402
2.2125 0.3842 0.0417
2.2175 0.2800 0.0356
2.2225 0.3329 0.0390
2.2275 0.3420 0.0390
2.2325 0.3114 0.0362
2.2375 0.4147 0.0430
2.2425 0.3840 0.0417
2.2475 0.3713 0.0413
2.2525 0.3221 0.0385
2.2575 0.3716 0.0401
2.2625 0.3405 0.0383
2.2675 0.3940 0.0418
2.2725 0.3913 0.0420
2.2775 0.3931 0.0427
2.2825 0.3281 0.0384
2.2875 0.3315 0.0383
2.2925 0.3286 0.0375
2.2975 0.2794 0.0352
2.3025 0.3765 0.0414
2.3075 0.3165 0.0378
2.3125 0.3063 0.0374
2.3175 0.3754 0.0406
2.3225 0.2383 0.0320
2.3275 0.2230 0.0316
2.3325 0.2997 0.0367
2.3375 0.2443 0.0333
2.3425 0.3080 0.0377
2.3475 0.2614 0.0338
2.3525 0.2503 0.0329
2.3575 0.2638 0.0341
2.3625 0.2949 0.0366
2.3675 0.2379 0.0330
2.3725 0.2811 0.0357
2.3775 0.3036 0.0363
2.3825 0.3571 0.0392
2.3875 0.2995 0.0366
2.3925 0.3269 0.0380
2.3975 0.2790 0.0358
2.4025 0.3713 0.0416
2.4075 0.2621 0.0336
2.4125 0.3126 0.0366
2.4175 0.2828 0.0354
2.4225 0.2694 0.0348
2.4275 0.2704 0.0352
2.4325 0.3191 0.0384
2.4375 0.2758 0.0343
2.4425 0.2936 0.0356
2.4475 0.2427 0.0328
2.4525 0.3007 0.0371
2.4575 0.3352 0.0390
2.4625 0.2864 0.0364
2.4675 0.2726 0.0338
2.4725 0.2593 0.0335
2.4775 0.3009 0.0366
2.4825 0.2930 0.0367
2.4875 0.2932 0.0364
2.4925 0.2909 0.0367
2.4975 0.3367 0.0375
2.5025 0.2924 0.0355
2.5075 0.2494 0.0334
2.5125 0.3035 0.0374
2.5175 0.2200 0.0315
2.5225 0.2688 0.0354
2.5275 0.2780 0.0338
2.5325 0.2746 0.0346
2.5375 0.2878 0.0360
2.5425 0.2240 0.0321
2.5475 0.1788 0.0283
2.5525 0.2869 0.0356
2.5575 0.2820 0.0345
2.5625 0.2485 0.0332
2.5675 0.2601 0.0342
2.5725 0.2139 0.0312
2.5775 0.2853 0.0360
2.5825 0.2450 0.0323
2.5875 0.2651 0.0337
2.5925 0.2264 0.0317
2.5975 0.1575 0.0267
2.6025 0.2361 0.0328
2.6075 0.2624 0.0348
2.6125 0.2211 0.0301
2.6175 0.2314 0.0318
2.6225 0.2109 0.0308
2.6275 0.1887 0.0292
2.6325 0.1852 0.0290
2.6375 0.2161 0.0306
2.6425 0.1905 0.0284
2.6475 0.1369 0.0246
2.6525 0.1640 0.0270
2.6575 0.2111 0.0311
2.6625 0.1741 0.0283
2.6675 0.1598 0.0256
2.6725 0.1481 0.0254
2.6775 0.1673 0.0272
2.6825 0.1185 0.0233
2.6875 0.1944 0.0297
2.6925 0.1745 0.0273
2.6975 0.1451 0.0249
0.2137 0.0156 0.0092
0.2142 0.0306 0.0138
0.2147 0.0240 0.0122
0.2152 0.0375 0.0143
0.2157 0.0223 0.0113
0.2162 0.0285 0.0129
0.2167 0.0246 0.0124
0.2172 0.0213 0.0107
0.2177 0.0050 0.0052
0.2182 0.0176 0.0104
0.2188 0.0237 0.0120
0.2193 0.0268 0.0121
0.2198 0.0254 0.0114
