1.0675 -0.0004 1.0000
1.0725 0.1552 0.0471
1.0775 0.1355 0.0392
1.0825 0.1517 0.0380
1.0875 0.2015 0.0382
1.0925 0.1867 0.0360
1.0975 0.2283 0.0386
1.1025 0.1773 0.0324
1.1075 0.2000 0.0317
1.1125 0.1735 0.0302
1.1175 0.2446 0.0346
1.1225 0.2636 0.0344
1.1275 0.2233 0.0307
1.1325 0.2202 0.0309
1.1375 0.2075 0.0300
1.1425 0.2972 0.0343
1.1475 0.4059 0.0410
1.1525 0.4740 0.0450
1.1575 0.3791 0.0393
1.1625 0.2948 0.0348
1.1675 0.2747 0.0338
1.1725 0.2550 0.0329
1.1775 0.2799 0.0335
1.1825 0.2838 0.0342
1.1875 0.3426 0.0376
1.1925 0.4509 0.0436
1.1975 0.3524 0.0372
1.2025 0.2682 0.0330
1.2075 0.2854 0.0346
1.2125 0.2608 0.0332
1.2175 0.2614 0.0320
1.2225 0.2808 0.0341
1.2275 0.2648 0.0331
1.2325 0.3057 0.0363
1.2375 0.2622 0.0318
1.2425 0.2760 0.0338
1.2475 0.2154 0.0302
1.2525 0.2859 0.0344
1.2575 0.4149 0.0409
1.2625 0.4458 0.0429
1.2675 0.4515 0.0435
1.2725 0.4292 0.0421
1.2775 0.3958 0.0394
1.2825 0.5143 0.0462
1.2875 0.3911 0.0410
1.2925 0.4282 0.0421
1.2975 0.6070 0.0494
1.3025 0.9819 0.0637
1.3075 0.9955 0.0648
1.3125 0.8007 0.0582
1.3175 0.8811 0.0588
1.3225 1.4213 0.0771
1.3275 2.9649 0.1118
1.3325 3.3049 0.1194
1.3375 1.8060 0.0847
1.3425 0.9688 0.0637
1.3475 0.5833 0.0495
1.3525 0.5507 0.0483
1.3575 0.8834 0.0596
1.3625 1.2604 0.0726
1.3675 2.2823 0.0979
1.3725 2.4084 0.1023
1.3775 1.4818 0.0784
1.3825 0.8295 0.0580
1.3875 0.6366 0.0522
1.3925 0.6483 0.0527
1.3975 0.6225 0.0519
1.4025 0.6138 0.0492
1.4075 0.6693 0.0529
1.4125 0.8621 0.0610
1.4175 2.2288 0.0980
1.4225 6.0362 0.1563
1.4275 8.3422 0.1861
1.4325 4.6422 0.1415
1.4375 1.7949 0.0874
1.4425 0.7517 0.0572
1.4475 0.6166 0.0496
1.4525 0.5825 0.0498
1.4575 0.5710 0.0497
1.4625 0.5674 0.0498
1.4675 0.5839 0.0490
1.4725 0.5221 0.0465
1.4775 0.5733 0.0497
1.4825 0.5539 0.0490
1.4875 0.5809 0.0504
1.4925 0.5948 0.0491
1.4975 0.6464 0.0521
1.5025 0.6950 0.0550
1.5075 0.8673 0.0618
1.5125 0.7735 0.0569
1.5175 0.7918 0.0573
1.5225 0.9615 0.0641
1.5275 1.5039 0.0809
1.5325 3.1297 0.1174
1.5375 3.0391 0.1123
1.5425 2.1596 0.0947
1.5475 1.1222 0.0702
1.5525 0.6809 0.0541
1.5575 0.6123 0.0522
1.5625 0.5607 0.0479
1.5675 0.5355 0.0475
1.5725 0.5684 0.0497
1.5775 0.6348 0.0528
1.5825 0.6185 0.0523
1.5875 0.5415 0.0470
1.5925 0.4779 0.0454
1.5975 0.5813 0.0501
1.6025 0.5985 0.0513
1.6075 0.5260 0.0482
1.6125 0.6027 0.0494
1.6175 0.5919 0.0504
1.6225 0.5965 0.0514
1.6275 0.5852 0.0508
1.6325 0.5221 0.0481
1.6375 0.5954 0.0493
1.6425 0.5948 0.0506
1.6475 0.5857 0.0502
1.6525 0.6541 0.0542
1.6575 0.9027 0.0633
1.6625 1.2428 0.0715
1.6675 2.0655 0.0948
1.6725 3.7547 0.1283
1.6775 6.2349 0.1657
1.6825 8.8828 0.1987
1.6875 9.5819 0.1998
1.6925 7.5628 0.1794
1.6975 4.8528 0.1456
1.7025 3.3166 0.1206
1.7075 2.1681 0.0993
1.7125 1.5011 0.0799
1.7175 1.2278 0.0720
1.7225 1.1788 0.0719
1.7275 0.9598 0.0652
1.7325 0.8780 0.0629
1.7375 0.7213 0.0560
1.7425 0.6923 0.0533
1.7475 0.7163 0.0563
1.7525 0.6992 0.0556
1.7575 0.7066 0.0564
1.7625 0.5863 0.0510
1.7675 0.5680 0.0485
1.7725 0.6393 0.0527
1.7775 0.6957 0.0554
1.7825 0.7622 0.0585
1.7875 0.6577 0.0541
1.7925 0.6330 0.0523
1.7975 0.5792 0.0498
1.8025 0.6285 0.0525
1.8075 0.5610 0.0498
1.8125 0.5542 0.0497
1.8175 0.5515 0.0502
1.8225 0.4376 0.0425
1.8275 0.5142 0.0474
1.8325 0.5809 0.0504
1.8375 0.4793 0.0464
1.8425 0.5296 0.0490
1.8475 0.4847 0.0458
1.8525 0.4951 0.0458
1.8575 0.5111 0.0475
1.8625 0.4735 0.0460
1.8675 0.5544 0.0502
1.8725 0.5518 0.0500
1.8775 0.5713 0.0488
1.8825 0.6008 0.0508
1.8875 0.6002 0.0516
1.8925 0.5275 0.0490
1.8975 0.4505 0.0453
1.9025 0.3983 0.0420
1.9075 0.4826 0.0450
1.9125 0.3492 0.0391
1.9175 0.5375 0.0491
1.9225 0.4819 0.0468
1.9275 0.4728 0.0462
1.9325 0.4530 0.0440
1.9375 0.5063 0.0468
1.9425 0.5510 0.0493
1.9475 0.5276 0.0490
1.9525 0.5542 0.0500
1.9575 0.5545 0.0502
1.9625 0.6247 0.0513
1.9675 0.6461 0.0531
1.9725 0.6493 0.0537
1.9775 0.6778 0.0551
1.9825 0.5684 0.0506
1.9875 0.6209 0.0536
1.9925 0.5058 0.0460
1.9975 0.5328 0.0482
2.0025 0.5848 0.0511
2.0075 0.6052 0.0521
2.0125 0.6956 0.0562
2.0175 0.7625 0.0596
2.0225 0.7213 0.0547
2.0275 0.7847 0.0582
2.0325 0.7384 0.0577
2.0375 0.7711 0.0588
2.0425 0.5991 0.0525
2.0475 0.4933 0.0472
2.0525 0.5716 0.0488
2.0575 0.3819 0.0410
2.0625 0.4734 0.0461
2.0675 0.3696 0.0411
2.0725 0.4103 0.0433
2.0775 0.3935 0.0415
2.0825 0.3782 0.0401
2.0875 0.3473 0.0394
2.0925 0.2936 0.0364
2.0975 0.3866 0.0417
2.1025 0.3648 0.0408
2.1075 0.2617 0.0338
2.1125 0.3245 0.0372
2.1175 0.3253 0.0381
2.1225 0.2983 0.0367
2.1275 0.2334 0.0324
2.1325 0.2989 0.0371
2.1375 0.2320 0.0319
2.1425 0.2772 0.0344
2.1475 0.2571 0.0338
2.1525 0.3019 0.0366
2.1575 0.3252 0.0386
2.1625 0.3499 0.0399
2.1675 0.2436 0.0329
2.1725 0.2612 0.0335
2.1775 0.2321 0.0319
2.1825 0.1985 0.0300
2.1875 0.2438 0.0332
2.1925 0.2863 0.0367
2.1975 0.3199 0.0372
2.2025 0.2657 0.0338
2.2075 0.2972 0.0363
2.2125 0.3121 0.0376
2.2175 0.2305 0.0323
2.2225 0.3011 0.0371
2.2275 0.3419 0.0390
2.2325 0.2570 0.0329
2.2375 0.2138 0.0309
2.2425 0.2844 0.0359
2.2475 0.2612 0.0346
2.2525 0.2578 0.0345
2.2575 0.2116 0.0303
2.2625 0.2844 0.0350
2.2675 0.2296 0.0319
2.2725 0.2067 0.0305
2.2775 0.2171 0.0317
2.2825 0.2293 0.0321
2.2875 0.2205 0.0312
2.2925 0.2218 0.0308
2.2975 0.2130 0.0308
2.3025 0.2223 0.0318
2.3075 0.2124 0.0310
2.3125 0.2421 0.0332
2.3175 0.2486 0.0330
2.3225 0.2300 0.0314
2.3275 0.2186 0.0313
2.3325 0.2631 0.0343
2.3375 0.2344 0.0326
2.3425 0.2161 0.0316
2.3475 0.2219 0.0311
2.3525 0.2113 0.0302
2.3575 0.1976 0.0295
2.3625 0.1814 0.0287
2.3675 0.1965 0.0300
2.3725 0.2038 0.0304
2.3775 0.1907 0.0288
2.3825 0.1760 0.0275
2.3875 0.2281 0.0320
2.3925 0.2249 0.0315
2.3975 0.2103 0.0311
2.4025 0.1900 0.0297
2.4075 0.2150 0.0304
2.4125 0.2309 0.0315
2.4175 0.2784 0.0351
2.4225 0.2335 0.0324
2.4275 0.2608 0.0346
2.4325 0.1983 0.0303
2.4375 0.2631 0.0335
2.4425 0.2330 0.0318
2.4475 0.2291 0.0318
2.4525 0.2461 0.0335
2.4575 0.2403 0.0330
2.4625 0.2356 0.0330
2.4675 0.2558 0.0328
2.4725 0.2331 0.0318
2.4775 0.2527 0.0335
2.4825 0.2653 0.0349
2.4875 0.2119 0.0310
2.4925 0.2402 0.0334
2.4975 0.2324 0.0311
2.5025 0.2494 0.0328
2.5075 0.2361 0.0325
2.5125 0.3034 0.0374
2.5175 0.2742 0.0351
2.5225 0.2550 0.0344
2.5275 0.2455 0.0317
2.5325 0.2396 0.0323
2.5375 0.2695 0.0348
2.5425 0.2102 0.0311
2.5475 0.1565 0.0265
2.5525 0.2645 0.0342
2.5575 0.1683 0.0267
2.5625 0.1998 0.0298
2.5675 0.1790 0.0283
2.5725 0.1954 0.0298
2.5775 0.2579 0.0342
2.5825 0.2367 0.0317
2.5875 0.1884 0.0284
2.5925 0.2663 0.0344
2.5975 0.2348 0.0326
2.6025 0.1040 0.0217
2.6075 0.1932 0.0298
2.6125 0.2002 0.0286
2.6175 0.1963 0.0293
2.6225 0.2287 0.0320
2.6275 0.1259 0.0238
2.6325 0.1988 0.0300
2.6375 0.1987 0.0293
2.6425 0.1778 0.0274
2.6475 0.1589 0.0265
2.6525 0.1732 0.0277
2.6575 0.1328 0.0247
2.6625 0.1558 0.0267
2.6675 0.1556 0.0253
2.6725 0.1355 0.0243
2.6775 0.1410 0.0249
2.6825 0.1275 0.0241
2.6875 0.1491 0.0260
2.6925 0.1359 0.0240
2.6975 0.1151 0.0222
0.2137 0.0156 0.0092
0.2142 0.0306 0.0138
0.2147 0.0240 0.0122
0.2152 0.0375 0.0143
0.2157 0.0223 0.0113
0.2162 0.0285 0.0129
0.2167 0.0246 0.0124
0.2172 0.0213 0.0107
0.2177 0.0050 0.0052
0.2182 0.0176 0.0104
0.2188 0.0237 0.0120
0.2193 0.0268 0.0121
0.2198 0.0254 0.0114
