1.0675 0.9852 0.4963
1.0725 0.6656 0.0975
1.0775 0.5092 0.0761
1.0825 0.6176 0.0767
1.0875 0.5922 0.0655
1.0925 0.5889 0.0639
1.0975 0.6848 0.0669
1.1025 0.7627 0.0672
1.1075 0.6018 0.0550
1.1125 0.6568 0.0588
1.1175 0.5825 0.0534
1.1225 0.6393 0.0535
1.1275 0.6915 0.0540
1.1325 0.7745 0.0579
1.1375 0.8529 0.0608
1.1425 0.7933 0.0561
1.1475 0.7752 0.0567
1.1525 0.8930 0.0618
1.1575 0.7670 0.0560
1.1625 0.9180 0.0613
1.1675 0.7912 0.0574
1.1725 0.8556 0.0603
1.1775 0.9285 0.0609
1.1825 0.8969 0.0608
1.1875 0.8803 0.0603
1.1925 0.9870 0.0645
1.1975 1.0160 0.0631
1.2025 0.9345 0.0616
1.2075 1.0674 0.0670
1.2125 1.0797 0.0675
1.2175 1.0112 0.0629
1.2225 1.0207 0.0649
1.2275 1.0489 0.0660
1.2325 1.0774 0.0681
1.2375 1.0772 0.0645
1.2425 1.1024 0.0675
1.2475 1.2868 0.0738
1.2525 1.1736 0.0698
1.2575 1.2045 0.0697
1.2625 1.2300 0.0713
1.2675 1.2169 0.0714
1.2725 1.3382 0.0744
1.2775 1.3870 0.0738
1.2825 1.4121 0.0765
1.2875 1.3535 0.0762
1.2925 1.4401 0.0771
1.2975 1.4473 0.0762
1.3025 1.3977 0.0760
1.3075 1.6017 0.0822
1.3125 1.4777 0.0791
1.3175 1.5281 0.0774
1.3225 1.5884 0.0815
1.3275 1.4767 0.0789
1.3325 1.5293 0.0812
1.3375 1.7634 0.0837
1.3425 1.7047 0.0845
1.3475 1.7120 0.0848
1.3525 1.5882 0.0820
1.3575 1.8711 0.0867
1.3625 1.8885 0.0889
1.3675 1.8441 0.0880
1.3725 1.7256 0.0866
1.3775 1.7761 0.0858
1.3825 1.7282 0.0836
1.3875 1.8506 0.0889
1.3925 1.9023 0.0904
1.3975 1.9520 0.0919
1.4025 2.0792 0.0905
1.4075 1.9205 0.0896
1.4125 1.9656 0.0920
1.4175 2.1092 0.0953
1.4225 2.0377 0.0908
1.4275 1.9625 0.0902
1.4325 1.9098 0.0907
1.4375 1.9653 0.0914
1.4425 2.0391 0.0942
1.4475 2.1576 0.0927
1.4525 2.0972 0.0945
1.4575 2.1698 0.0969
1.4625 2.0264 0.0941
1.4675 2.0091 0.0909
1.4725 2.0999 0.0933
1.4775 1.9360 0.0914
1.4825 2.0362 0.0939
1.4875 1.9261 0.0917
1.4925 1.8872 0.0874
1.4975 2.0243 0.0922
1.5025 1.8504 0.0897
1.5075 1.8187 0.0895
1.5125 1.7152 0.0847
1.5175 1.8546 0.0877
1.5225 1.7644 0.0868
1.5275 1.7856 0.0881
1.5325 1.7278 0.0872
1.5375 1.6532 0.0828
1.5425 1.7728 0.0858
1.5475 1.7507 0.0876
1.5525 1.6662 0.0846
1.5575 1.6435 0.0855
1.5625 1.6839 0.0831
1.5675 1.5587 0.0811
1.5725 1.5765 0.0828
1.5775 1.5597 0.0827
1.5825 1.4467 0.0800
1.5875 1.5747 0.0802
1.5925 1.5162 0.0808
1.5975 1.3744 0.0770
1.6025 1.3261 0.0764
1.6075 1.3976 0.0786
1.6125 1.3197 0.0731
1.6175 1.2784 0.0741
1.6225 1.3317 0.0768
1.6275 1.3999 0.0785
1.6325 1.2433 0.0742
1.6375 1.4243 0.0762
1.6425 1.3974 0.0776
1.6475 1.4525 0.0791
1.6525 1.2122 0.0737
1.6575 1.2321 0.0740
1.6625 1.0983 0.0672
1.6675 1.2562 0.0739
1.6725 1.1231 0.0702
1.6775 1.2124 0.0731
1.6825 0.9957 0.0665
1.6875 0.9998 0.0645
1.6925 1.1199 0.0690
1.6975 1.0431 0.0675
1.7025 1.1628 0.0714
1.7075 1.0499 0.0691
1.7125 1.0586 0.0671
1.7175 0.9915 0.0647
1.7225 1.0084 0.0665
1.7275 0.9466 0.0647
1.7325 1.0350 0.0683
1.7375 0.8559 0.0610
1.7425 0.9338 0.0619
1.7475 1.0568 0.0684
1.7525 0.9024 0.0632
1.7575 0.9362 0.0649
1.7625 0.8439 0.0612
1.7675 0.8885 0.0607
1.7725 0.8774 0.0618
1.7775 0.8104 0.0597
1.7825 0.7309 0.0573
1.7875 0.7737 0.0586
1.7925 0.8238 0.0597
1.7975 0.8616 0.0607
1.8025 0.8423 0.0608
1.8075 0.7995 0.0595
1.8125 0.7858 0.0592
1.8175 0.9092 0.0644
1.8225 0.7767 0.0567
1.8275 0.7862 0.0586
1.8325 0.7158 0.0559
1.8375 0.8070 0.0602
1.8425 0.7687 0.0590
1.8475 0.8178 0.0595
1.8525 0.7503 0.0564
1.8575 0.6782 0.0547
1.8625 0.7238 0.0568
1.8675 0.7044 0.0566
1.8725 0.7061 0.0565
1.8775 0.6589 0.0524
1.8825 0.7040 0.0550
1.8875 0.7331 0.0571
1.8925 0.6772 0.0555
1.8975 0.6683 0.0551
1.9025 0.6865 0.0551
1.9075 0.6680 0.0530
1.9125 0.5769 0.0502
1.9175 0.5780 0.0509
1.9225 0.6410 0.0540
1.9275 0.6493 0.0541
1.9325 0.6201 0.0515
1.9375 0.5758 0.0499
1.9425 0.5377 0.0487
1.9475 0.5640 0.0506
1.9525 0.5947 0.0518
1.9575 0.6178 0.0530
1.9625 0.6419 0.0520
1.9675 0.5370 0.0484
1.9725 0.6047 0.0518
1.9775 0.4886 0.0468
1.9825 0.5188 0.0483
1.9875 0.5787 0.0518
1.9925 0.5608 0.0484
1.9975 0.5199 0.0476
2.0025 0.5089 0.0477
2.0075 0.5962 0.0517
2.0125 0.4907 0.0472
2.0175 0.6047 0.0530
2.0225 0.5597 0.0482
2.0275 0.5340 0.0480
2.0325 0.4863 0.0468
2.0375 0.5464 0.0495
2.0425 0.5114 0.0485
2.0475 0.4387 0.0446
2.0525 0.4252 0.0421
2.0575 0.4699 0.0455
2.0625 0.5078 0.0477
2.0675 0.4456 0.0451
2.0725 0.4048 0.0430
2.0775 0.5079 0.0472
2.0825 0.4335 0.0429
2.0875 0.3781 0.0411
2.0925 0.4288 0.0441
2.0975 0.5081 0.0478
2.1025 0.4240 0.0440
2.1075 0.4275 0.0432
2.1125 0.4442 0.0436
2.1175 0.4105 0.0428
2.1225 0.4294 0.0441
2.1275 0.4634 0.0457
2.1325 0.4462 0.0453
2.1375 0.3940 0.0416
2.1425 0.4008 0.0414
2.1475 0.4041 0.0424
2.1525 0.4173 0.0431
2.1575 0.3524 0.0402
2.1625 0.3360 0.0391
2.1675 0.3592 0.0400
2.1725 0.3342 0.0379
2.1775 0.3157 0.0372
2.1825 0.4523 0.0452
2.1875 0.3026 0.0370
2.1925 0.3238 0.0390
2.1975 0.3461 0.0387
2.2025 0.4203 0.0425
2.2075 0.3466 0.0392
2.2125 0.3569 0.0402
2.2175 0.3531 0.0400
2.2225 0.4287 0.0442
2.2275 0.4219 0.0433
2.2325 0.3666 0.0393
2.2375 0.3527 0.0397
2.2425 0.3074 0.0373
2.2475 0.3486 0.0400
2.2525 0.3498 0.0402
2.2575 0.3934 0.0413
2.2625 0.3924 0.0411
2.2675 0.3760 0.0408
2.2725 0.4275 0.0439
2.2775 0.3143 0.0381
2.2825 0.3508 0.0398
2.2875 0.3050 0.0367
2.2925 0.3461 0.0385
2.2975 0.3460 0.0392
2.3025 0.3496 0.0399
2.3075 0.3664 0.0407
2.3125 0.2790 0.0357
2.3175 0.2927 0.0358
2.3225 0.3069 0.0363
2.3275 0.2454 0.0332
2.3325 0.2953 0.0364
2.3375 0.2714 0.0350
2.3425 0.2251 0.0322
2.3475 0.3396 0.0385
2.3525 0.3806 0.0406
2.3575 0.2905 0.0358
2.3625 0.3311 0.0388
2.3675 0.3112 0.0378
2.3725 0.2718 0.0351
2.3775 0.2515 0.0331
2.3825 0.3008 0.0360
2.3875 0.3041 0.0369
2.3925 0.3047 0.0367
2.3975 0.3298 0.0389
2.4025 0.2971 0.0372
2.4075 0.3227 0.0373
2.4125 0.2482 0.0326
2.4175 0.2604 0.0339
2.4225 0.3192 0.0379
2.4275 0.2699 0.0352
2.4325 0.3234 0.0387
2.4375 0.2505 0.0327
2.4425 0.2979 0.0359
2.4475 0.2867 0.0356
2.4525 0.3010 0.0371
2.4575 0.3354 0.0390
2.4625 0.2772 0.0358
2.4675 0.2768 0.0341
2.4725 0.2763 0.0346
2.4775 0.3234 0.0379
2.4825 0.2560 0.0343
2.4875 0.2840 0.0358
2.4925 0.2950 0.0370
2.4975 0.2454 0.0320
2.5025 0.2409 0.0322
2.5075 0.2316 0.0322
2.5125 0.3032 0.0374
2.5175 0.3327 0.0387
2.5225 0.2134 0.0315
2.5275 0.2328 0.0309
2.5325 0.3270 0.0378
2.5375 0.2472 0.0334
2.5425 0.3159 0.0381
2.5475 0.2459 0.0332
2.5525 0.3043 0.0367
2.5575 0.2526 0.0326
2.5625 0.2527 0.0335
2.5675 0.2240 0.0317
2.5725 0.2230 0.0318
2.5775 0.2396 0.0330
2.5825 0.2156 0.0303
2.5875 0.2510 0.0328
2.5925 0.2261 0.0317
2.5975 0.2348 0.0326
2.6025 0.2089 0.0308
2.6075 0.2166 0.0316
2.6125 0.2249 0.0304
2.6175 0.2051 0.0299
2.6225 0.2334 0.0324
2.6275 0.2745 0.0352
2.6325 0.2845 0.0359
2.6375 0.2119 0.0303
2.6425 0.1989 0.0290
2.6475 0.1856 0.0287
2.6525 0.2130 0.0308
2.6575 0.1837 0.0290
2.6625 0.1329 0.0247
2.6675 0.1924 0.0281
2.6725 0.1571 0.0262
2.6775 0.1232 0.0233
2.6825 0.1598 0.0270
2.6875 0.1174 0.0231
2.6925 0.1788 0.0276
2.6975 0.1793 0.0277
0.2137 0.0156 0.0092
0.2142 0.0306 0.0138
0.2147 0.0240 0.0122
0.2152 0.0375 0.0143
0.2157 0.0223 0.0113
0.2162 0.0285 0.0129
0.2167 0.0246 0.0124
0.2172 0.0213 0.0107
0.2177 0.0050 0.0052
0.2182 0.0176 0.0104
0.2188 0.0237 0.0120
0.2193 0.0268 0.0121
0.2198 0.0254 0.0114
