1.0675 0.7432 0.4311
1.0725 0.7936 0.1065
1.0775 0.8708 0.0995
1.0825 0.7695 0.0856
1.0875 0.8750 0.0796
1.0925 0.8048 0.0748
1.0975 0.9133 0.0773
1.1025 0.8631 0.0715
1.1075 0.9535 0.0692
1.1125 1.0668 0.0749
1.1175 0.8905 0.0661
1.1225 0.9940 0.0668
1.1275 0.9273 0.0626
1.1325 0.9472 0.0640
1.1375 1.0611 0.0678
1.1425 1.0391 0.0642
1.1475 1.1028 0.0676
1.1525 1.0681 0.0676
1.1575 1.0564 0.0657
1.1625 1.0898 0.0668
1.1675 1.0243 0.0653
1.1725 1.0771 0.0677
1.1775 1.1087 0.0666
1.1825 1.1728 0.0695
1.1875 1.1862 0.0700
1.1925 1.1897 0.0709
1.1975 1.2196 0.0692
1.2025 1.2442 0.0711
1.2075 1.2819 0.0734
1.2125 1.1681 0.0702
1.2175 1.2460 0.0698
1.2225 1.2445 0.0717
1.2275 1.3442 0.0747
1.2325 1.2374 0.0730
1.2375 1.4830 0.0757
1.2425 1.4287 0.0768
1.2475 1.4228 0.0776
1.2525 1.5174 0.0793
1.2575 1.3499 0.0738
1.2625 1.4773 0.0781
1.2675 1.3047 0.0739
1.2725 1.4786 0.0782
1.2775 1.4970 0.0766
1.2825 1.5198 0.0794
1.2875 1.3879 0.0772
1.2925 1.6458 0.0825
1.2975 1.5154 0.0780
1.3025 1.4918 0.0785
1.3075 1.5126 0.0799
1.3125 1.7152 0.0853
1.3175 1.5683 0.0784
1.3225 1.6477 0.0830
1.3275 1.5850 0.0818
1.3325 1.5418 0.0815
1.3375 1.6086 0.0799
1.3425 1.5890 0.0815
1.3475 1.7038 0.0846
1.3525 1.7156 0.0853
1.3575 1.7139 0.0830
1.3625 1.8260 0.0874
1.3675 1.5380 0.0804
1.3725 1.9299 0.0916
1.3775 1.8427 0.0874
1.3825 1.6795 0.0825
1.3875 1.7055 0.0854
1.3925 1.6444 0.0840
1.3975 1.6838 0.0854
1.4025 1.7240 0.0824
1.4075 1.7240 0.0849
1.4125 1.7242 0.0862
1.4175 1.9192 0.0910
1.4225 1.7015 0.0830
1.4275 1.7542 0.0853
1.4325 1.7847 0.0877
1.4375 1.7488 0.0863
1.4425 1.6957 0.0859
1.4475 1.8198 0.0851
1.4525 1.7274 0.0857
1.4575 1.8361 0.0892
1.4625 1.7732 0.0880
1.4675 1.7488 0.0848
1.4725 1.6392 0.0825
1.4775 1.6766 0.0850
1.4825 1.7067 0.0860
1.4875 1.5675 0.0827
1.4925 1.8393 0.0863
1.4975 1.4994 0.0794
1.5025 1.6034 0.0835
1.5075 1.5502 0.0826
1.5125 1.6066 0.0820
1.5175 1.6808 0.0835
1.5225 1.5629 0.0817
1.5275 1.5861 0.0830
1.5325 1.4239 0.0792
1.5375 1.4664 0.0780
1.5425 1.3850 0.0758
1.5475 1.4544 0.0799
1.5525 1.4313 0.0784
1.5575 1.4660 0.0807
1.5625 1.3851 0.0753
1.5675 1.2721 0.0733
1.5725 1.3684 0.0771
1.5775 1.4284 0.0792
1.5825 1.4637 0.0805
1.5875 1.3377 0.0739
1.5925 1.3136 0.0752
1.5975 1.2503 0.0734
1.6025 1.4268 0.0793
1.6075 1.2167 0.0734
1.6125 1.3073 0.0728
1.6175 1.3565 0.0763
1.6225 1.2563 0.0746
1.6275 1.2069 0.0729
1.6325 1.1953 0.0727
1.6375 1.1797 0.0694
1.6425 1.1079 0.0691
1.6475 1.1081 0.0691
1.6525 1.0176 0.0676
1.6575 1.1518 0.0715
1.6625 1.1360 0.0684
1.6675 1.0825 0.0686
1.6725 1.0920 0.0692
1.6775 1.0837 0.0691
1.6825 1.1419 0.0712
1.6875 1.0079 0.0648
1.6925 1.0686 0.0674
1.6975 1.1048 0.0695
1.7025 0.9647 0.0650
1.7075 1.0584 0.0694
1.7125 1.0586 0.0671
1.7175 0.9320 0.0627
1.7225 0.8854 0.0623
1.7275 0.9911 0.0662
1.7325 0.9180 0.0643
1.7375 0.7957 0.0588
1.7425 0.9910 0.0637
1.7475 0.8980 0.0630
1.7525 0.8939 0.0629
1.7575 0.8418 0.0616
1.7625 0.9328 0.0644
1.7675 0.7888 0.0572
1.7725 0.7732 0.0580
1.7775 0.7755 0.0584
1.7825 0.8788 0.0628
1.7875 0.7288 0.0569
1.7925 0.8853 0.0619
1.7975 0.9087 0.0623
1.8025 0.9134 0.0633
1.8075 0.7818 0.0588
1.8125 0.7537 0.0580
1.8175 0.6387 0.0540
1.8225 0.6854 0.0532
1.8275 0.7946 0.0589
1.8325 0.6989 0.0552
1.8375 0.8383 0.0613
1.8425 0.7728 0.0591
1.8475 0.6620 0.0535
1.8525 0.8015 0.0583
1.8575 0.7798 0.0586
1.8625 0.6787 0.0550
1.8675 0.5959 0.0520
1.8725 0.7014 0.0563
1.8775 0.7169 0.0547
1.8825 0.7472 0.0566
1.8875 0.6314 0.0530
1.8925 0.7819 0.0596
1.8975 0.6458 0.0542
1.9025 0.5931 0.0512
1.9075 0.6304 0.0515
1.9125 0.6780 0.0544
1.9175 0.6004 0.0519
1.9225 0.6140 0.0528
1.9275 0.6401 0.0537
1.9325 0.7271 0.0557
1.9375 0.5588 0.0492
1.9425 0.6173 0.0521
1.9475 0.6138 0.0528
1.9525 0.5271 0.0487
1.9575 0.6454 0.0542
1.9625 0.5484 0.0481
1.9675 0.6204 0.0521
1.9725 0.5514 0.0495
1.9775 0.6010 0.0519
1.9825 0.5719 0.0508
1.9875 0.5647 0.0511
1.9925 0.5649 0.0486
1.9975 0.5638 0.0496
2.0025 0.4909 0.0468
2.0075 0.5921 0.0515
2.0125 0.5498 0.0500
2.0175 0.6371 0.0544
2.0225 0.5056 0.0458
2.0275 0.5695 0.0495
2.0325 0.5405 0.0493
2.0375 0.5112 0.0479
2.0425 0.5108 0.0485
2.0475 0.5161 0.0483
2.0525 0.4542 0.0435
2.0575 0.5397 0.0488
2.0625 0.4856 0.0467
2.0675 0.4504 0.0453
2.0725 0.5194 0.0487
2.0775 0.4465 0.0443
2.0825 0.4801 0.0452
2.0875 0.4853 0.0465
2.0925 0.5014 0.0476
2.0975 0.4674 0.0459
2.1025 0.4377 0.0447
2.1075 0.5193 0.0476
2.1125 0.4524 0.0440
2.1175 0.5351 0.0489
2.1225 0.4291 0.0441
2.1275 0.4322 0.0441
2.1325 0.4279 0.0444
2.1375 0.4599 0.0449
2.1425 0.4394 0.0433
2.1475 0.4216 0.0433
2.1525 0.4042 0.0424
2.1575 0.3985 0.0428
2.1625 0.4082 0.0431
2.1675 0.5286 0.0485
2.1725 0.4246 0.0427
2.1775 0.4293 0.0434
2.1825 0.4025 0.0427
2.1875 0.5653 0.0506
2.1925 0.4224 0.0445
2.1975 0.4501 0.0441
2.2025 0.4202 0.0425
2.2075 0.3728 0.0407
2.2125 0.3843 0.0417
2.2175 0.3346 0.0389
2.2225 0.4383 0.0447
2.2275 0.4356 0.0440
2.2325 0.4975 0.0458
2.2375 0.3881 0.0416
2.2425 0.3841 0.0417
2.2475 0.4084 0.0433
2.2525 0.4097 0.0435
2.2575 0.4584 0.0445
2.2625 0.3749 0.0402
2.2675 0.4021 0.0422
2.2725 0.3331 0.0387
2.2775 0.3608 0.0409
2.2825 0.3641 0.0405
2.2875 0.3576 0.0398
2.2925 0.3929 0.0410
2.2975 0.2352 0.0323
2.3025 0.3900 0.0421
2.3075 0.4120 0.0432
2.3125 0.4165 0.0436
2.3175 0.3894 0.0413
2.3225 0.4690 0.0449
2.3275 0.4148 0.0431
2.3325 0.3706 0.0408
2.3375 0.3298 0.0386
2.3425 0.4364 0.0448
2.3475 0.3265 0.0378
2.3525 0.2981 0.0359
2.3575 0.3874 0.0413
2.3625 0.3720 0.0411
2.3675 0.3938 0.0425
2.3725 0.3812 0.0416
2.3775 0.3383 0.0384
2.3825 0.4001 0.0415
2.3875 0.3938 0.0420
2.3925 0.4283 0.0435
2.3975 0.3341 0.0391
2.4025 0.3481 0.0402
2.4075 0.2619 0.0336
2.4125 0.3296 0.0376
2.4175 0.4023 0.0422
2.4225 0.4001 0.0425
2.4275 0.3341 0.0391
2.4325 0.3278 0.0390
2.4375 0.3523 0.0387
2.4425 0.3759 0.0403
2.4475 0.3796 0.0410
2.4525 0.3736 0.0413
2.4575 0.3356 0.0391
2.4625 0.2910 0.0367
2.4675 0.3605 0.0389
2.4725 0.3370 0.0382
2.4775 0.3902 0.0416
2.4825 0.3432 0.0397
2.4875 0.3113 0.0375
2.4925 0.3142 0.0381
2.4975 0.3369 0.0375
2.5025 0.3010 0.0360
2.5075 0.3031 0.0368
2.5125 0.3219 0.0385
2.5175 0.4273 0.0439
2.5225 0.3617 0.0410
2.5275 0.3555 0.0382
2.5325 0.3443 0.0388
2.5375 0.2920 0.0363
2.5425 0.3616 0.0407
2.5475 0.3623 0.0403
2.5525 0.3223 0.0378
2.5575 0.3412 0.0379
2.5625 0.3239 0.0379
2.5675 0.3138 0.0375
2.5725 0.3187 0.0381
2.5775 0.2945 0.0366
2.5825 0.3294 0.0374
2.5875 0.3248 0.0373
2.5925 0.3234 0.0379
2.5975 0.3068 0.0373
2.6025 0.2631 0.0346
2.6075 0.2857 0.0363
2.6125 0.3602 0.0384
2.6175 0.2486 0.0329
2.6225 0.2688 0.0347
2.6275 0.2880 0.0360
2.6325 0.2669 0.0348
2.6375 0.2551 0.0332
2.6425 0.2711 0.0339
2.6475 0.2345 0.0322
2.6525 0.2620 0.0341
2.6575 0.3489 0.0400
2.6625 0.2659 0.0349
2.6675 0.2296 0.0307
2.6725 0.2400 0.0324
2.6775 0.2867 0.0355
2.6825 0.2516 0.0339
2.6875 0.1899 0.0293
2.6925 0.1873 0.0282
2.6975 0.2049 0.0296
0.2137 0.0156 0.0092
0.2142 0.0306 0.0138
0.2147 0.0240 0.0122
0.2152 0.0375 0.0143
0.2157 0.0223 0.0113
0.2162 0.0285 0.0129
0.2167 0.0246 0.0124
0.2172 0.0213 0.0107
0.2177 0.0050 0.0052
0.2182 0.0176 0.0104
0.2188 0.0237 0.0120
0.2193 0.0268 0.0121
0.2198 0.0254 0.0114
