1.0675 0.9913 0.4978
1.0725 0.7077 0.1005
1.0775 0.5545 0.0794
1.0825 0.6175 0.0767
1.0875 0.7741 0.0749
1.0925 0.7557 0.0724
1.0975 0.6976 0.0675
1.1025 0.7152 0.0651
1.1075 0.7280 0.0605
1.1125 0.7934 0.0646
1.1175 0.7343 0.0600
1.1225 0.7879 0.0594
1.1275 0.7884 0.0577
1.1325 0.8645 0.0612
1.1375 0.7181 0.0558
1.1425 0.7890 0.0560
1.1475 0.9164 0.0617
1.1525 0.9314 0.0631
1.1575 0.8692 0.0596
1.1625 0.9957 0.0639
1.1675 0.9370 0.0625
1.1725 0.9446 0.0634
1.1775 0.9808 0.0626
1.1825 0.9709 0.0632
1.1875 0.9551 0.0628
1.1925 0.9618 0.0637
1.1975 1.0430 0.0640
1.2025 1.1417 0.0681
1.2075 1.0792 0.0673
1.2125 0.9657 0.0638
1.2175 1.1835 0.0680
1.2225 1.1703 0.0695
1.2275 1.1446 0.0689
1.2325 1.2239 0.0726
1.2375 1.2049 0.0682
1.2425 1.1729 0.0696
1.2475 1.1474 0.0697
1.2525 1.3057 0.0736
1.2575 1.3580 0.0740
1.2625 1.2426 0.0717
1.2675 1.3384 0.0748
1.2725 1.3300 0.0741
1.2775 1.5055 0.0768
1.2825 1.2832 0.0730
1.2875 1.4092 0.0778
1.2925 1.5218 0.0793
1.2975 1.4441 0.0762
1.3025 1.5309 0.0795
1.3075 1.5525 0.0809
1.3125 1.5590 0.0813
1.3175 1.5598 0.0782
1.3225 1.5295 0.0800
1.3275 1.5478 0.0808
1.3325 1.6806 0.0851
1.3375 1.7156 0.0825
1.3425 1.7011 0.0844
1.3475 1.6156 0.0824
1.3525 1.6776 0.0843
1.3575 1.7308 0.0834
1.3625 1.8759 0.0886
1.3675 1.7986 0.0869
1.3725 1.9263 0.0915
1.3775 1.7352 0.0849
1.3825 1.8090 0.0856
1.3875 1.9073 0.0903
1.3925 2.0699 0.0943
1.3975 2.0549 0.0943
1.4025 1.9093 0.0867
1.4075 2.0128 0.0918
1.4125 1.9144 0.0908
1.4175 2.0190 0.0933
1.4225 1.8104 0.0856
1.4275 2.0043 0.0912
1.4325 2.0388 0.0937
1.4375 1.8725 0.0893
1.4425 1.8689 0.0901
1.4475 1.9587 0.0883
1.4525 2.0379 0.0931
1.4575 1.9788 0.0926
1.4625 1.9649 0.0926
1.4675 1.8401 0.0870
1.4725 1.9866 0.0908
1.4775 1.7983 0.0880
1.4825 1.7582 0.0872
1.4875 1.7951 0.0885
1.4925 1.6933 0.0828
1.4975 1.5327 0.0802
1.5025 1.8514 0.0897
1.5075 1.8810 0.0910
1.5125 1.6856 0.0840
1.5175 1.9429 0.0898
1.5225 1.5888 0.0824
1.5275 1.7032 0.0861
1.5325 1.6968 0.0865
1.5375 1.8065 0.0866
1.5425 1.6916 0.0838
1.5475 1.6678 0.0855
1.5525 1.4389 0.0786
1.5575 1.5688 0.0835
1.5625 1.3401 0.0741
1.5675 1.4419 0.0780
1.5725 1.6243 0.0840
1.5775 1.4282 0.0791
1.5825 1.4464 0.0800
1.5875 1.4073 0.0758
1.5925 1.4475 0.0790
1.5975 1.4390 0.0788
1.6025 1.4707 0.0805
1.6075 1.4427 0.0799
1.6125 1.3076 0.0728
1.6175 1.4377 0.0786
1.6225 1.3899 0.0784
1.6275 1.3162 0.0761
1.6325 1.3453 0.0772
1.6375 1.2612 0.0717
1.6425 1.1558 0.0706
1.6475 1.1858 0.0715
1.6525 1.1932 0.0731
1.6575 1.1466 0.0714
1.6625 1.1887 0.0699
1.6675 1.1603 0.0710
1.6725 1.0963 0.0693
1.6775 1.2074 0.0729
1.6825 0.9864 0.0662
1.6875 1.0790 0.0671
1.6925 1.1585 0.0702
1.6975 1.1344 0.0704
1.7025 1.0434 0.0677
1.7075 0.9633 0.0662
1.7125 1.0461 0.0667
1.7175 0.8858 0.0611
1.7225 0.8808 0.0622
1.7275 1.0006 0.0665
1.7325 1.0892 0.0700
1.7375 0.9649 0.0648
1.7425 1.0158 0.0645
1.7475 0.9513 0.0649
1.7525 0.9782 0.0658
1.7575 0.8868 0.0632
1.7625 0.8175 0.0603
1.7675 0.9002 0.0611
1.7725 0.8212 0.0598
1.7775 0.8496 0.0612
1.7825 0.8652 0.0623
1.7875 0.9071 0.0635
1.7925 0.7722 0.0578
1.7975 0.8610 0.0607
1.8025 0.7467 0.0572
1.8075 0.7240 0.0566
1.8125 0.8749 0.0625
1.8175 0.7581 0.0588
1.8225 0.7561 0.0559
1.8275 0.8242 0.0600
1.8325 0.6153 0.0518
1.8375 0.8155 0.0605
1.8425 0.7371 0.0578
1.8475 0.8218 0.0596
1.8525 0.7584 0.0567
1.8575 0.6739 0.0545
1.8625 0.7551 0.0581
1.8675 0.6591 0.0547
1.8725 0.6518 0.0543
1.8775 0.6966 0.0539
1.8825 0.6784 0.0540
1.8875 0.6486 0.0537
1.8925 0.6732 0.0553
1.8975 0.6142 0.0528
1.9025 0.6595 0.0540
1.9075 0.6680 0.0530
1.9125 0.6163 0.0519
1.9175 0.6007 0.0519
1.9225 0.7141 0.0570
1.9275 0.6940 0.0559
1.9325 0.5602 0.0489
1.9375 0.5758 0.0499
1.9425 0.6087 0.0518
1.9475 0.5503 0.0500
1.9525 0.5225 0.0485
1.9575 0.5767 0.0512
1.9625 0.6121 0.0508
1.9675 0.4760 0.0456
1.9725 0.5022 0.0472
1.9775 0.5429 0.0493
1.9825 0.5583 0.0502
1.9875 0.5283 0.0495
1.9925 0.5771 0.0491
1.9975 0.5458 0.0488
2.0025 0.5939 0.0515
2.0075 0.4662 0.0457
2.0125 0.5135 0.0483
2.0175 0.4513 0.0458
2.0225 0.5686 0.0486
2.0275 0.4701 0.0450
2.0325 0.4502 0.0450
2.0375 0.4794 0.0464
2.0425 0.4842 0.0472
2.0475 0.4936 0.0473
2.0525 0.4459 0.0431
2.0575 0.4436 0.0442
2.0625 0.4810 0.0464
2.0675 0.4919 0.0474
2.0725 0.4515 0.0454
2.0775 0.4202 0.0429
2.0825 0.4211 0.0423
2.0875 0.3692 0.0406
2.0925 0.3609 0.0404
2.0975 0.4269 0.0439
2.1025 0.4335 0.0445
2.1075 0.4008 0.0418
2.1125 0.5376 0.0479
2.1175 0.5086 0.0476
2.1225 0.4293 0.0441
2.1275 0.4633 0.0457
2.1325 0.4094 0.0434
2.1375 0.4027 0.0420
2.1425 0.3326 0.0377
2.1475 0.3865 0.0414
2.1525 0.3417 0.0390
2.1575 0.5178 0.0487
2.1625 0.4409 0.0448
2.1675 0.3686 0.0405
2.1725 0.4286 0.0429
2.1775 0.3901 0.0414
2.1825 0.4294 0.0441
2.1875 0.4205 0.0436
2.1925 0.4080 0.0438
2.1975 0.3976 0.0415
2.2025 0.3302 0.0376
2.2075 0.4045 0.0424
2.2125 0.3839 0.0417
2.2175 0.3796 0.0414
2.2225 0.3421 0.0395
2.2275 0.3728 0.0407
2.2325 0.3074 0.0360
2.2375 0.3926 0.0419
2.2425 0.2709 0.0350
2.2475 0.3528 0.0402
2.2525 0.3820 0.0420
2.2575 0.3847 0.0408
2.2625 0.3490 0.0388
2.2675 0.4025 0.0422
2.2725 0.3780 0.0413
2.2775 0.3516 0.0403
2.2825 0.3690 0.0408
2.2875 0.3225 0.0378
2.2925 0.2817 0.0347
2.2975 0.2261 0.0317
2.3025 0.3312 0.0388
2.3075 0.3617 0.0405
2.3125 0.3565 0.0403
2.3175 0.2891 0.0356
2.3225 0.3798 0.0404
2.3275 0.3654 0.0405
2.3325 0.3482 0.0395
2.3375 0.2885 0.0361
2.3425 0.3073 0.0376
2.3475 0.2524 0.0332
2.3525 0.2676 0.0340
2.3575 0.3211 0.0376
2.3625 0.4043 0.0429
2.3675 0.3113 0.0378
2.3725 0.3629 0.0406
2.3775 0.3386 0.0384
2.3825 0.3440 0.0385
2.3875 0.3534 0.0398
2.3925 0.3793 0.0410
2.3975 0.2743 0.0355
2.4025 0.3015 0.0374
2.4075 0.3834 0.0406
2.4125 0.2700 0.0340
2.4175 0.2429 0.0328
2.4225 0.3007 0.0368
2.4275 0.3659 0.0410
2.4325 0.3330 0.0393
2.4375 0.3738 0.0399
2.4425 0.3499 0.0389
2.4475 0.2690 0.0345
2.4525 0.2506 0.0338
2.4575 0.2494 0.0337
2.4625 0.2264 0.0324
2.4675 0.3100 0.0361
2.4725 0.3372 0.0382
2.4775 0.2839 0.0355
2.4825 0.2927 0.0366
2.4875 0.3342 0.0389
2.4925 0.3048 0.0376
2.4975 0.2285 0.0309
2.5025 0.3182 0.0370
2.5075 0.2674 0.0345
2.5125 0.2713 0.0354
2.5175 0.2518 0.0337
2.5225 0.2366 0.0332
2.5275 0.2576 0.0325
2.5325 0.2656 0.0341
2.5375 0.3286 0.0385
2.5425 0.2196 0.0317
2.5475 0.2817 0.0355
2.5525 0.2822 0.0353
2.5575 0.2274 0.0310
2.5625 0.2930 0.0361
2.5675 0.2151 0.0311
2.5725 0.2456 0.0334
2.5775 0.2261 0.0321
2.5825 0.2659 0.0336
2.5875 0.2477 0.0326
2.5925 0.2487 0.0332
2.5975 0.2844 0.0359
2.6025 0.2719 0.0352
2.6075 0.1838 0.0291
2.6125 0.2292 0.0306
2.6175 0.2311 0.0318
2.6225 0.1969 0.0297
2.6275 0.2025 0.0302
2.6325 0.1808 0.0286
2.6375 0.2120 0.0303
2.6425 0.2031 0.0293
2.6475 0.1944 0.0293
2.6525 0.1867 0.0288
2.6575 0.1972 0.0301
2.6625 0.1834 0.0290
2.6675 0.1555 0.0252
2.6725 0.2095 0.0302
2.6775 0.2026 0.0299
2.6825 0.1781 0.0285
2.6875 0.1491 0.0260
2.6925 0.1361 0.0241
2.6975 0.1237 0.0230
0.2137 0.0156 0.0092
0.2142 0.0306 0.0138
0.2147 0.0240 0.0122
0.2152 0.0375 0.0143
0.2157 0.0223 0.0113
0.2162 0.0285 0.0129
0.2167 0.0246 0.0124
0.2172 0.0213 0.0107
0.2177 0.0050 0.0052
0.2182 0.0176 0.0104
0.2188 0.0237 0.0120
0.2193 0.0268 0.0121
0.2198 0.0254 0.0114
