1.0675 0.2495 0.2498
1.0725 0.4105 0.0766
1.0775 0.5212 0.0770
1.0825 0.3803 0.0602
1.0875 0.4623 0.0579
1.0925 0.4920 0.0584
1.0975 0.4503 0.0543
1.1025 0.4256 0.0502
1.1075 0.4518 0.0477
1.1125 0.4782 0.0502
1.1175 0.5582 0.0523
1.1225 0.4833 0.0466
1.1275 0.5348 0.0475
1.1325 0.4629 0.0448
1.1375 0.5237 0.0476
1.1425 0.4956 0.0443
1.1475 0.5759 0.0489
1.1525 0.6701 0.0535
1.1575 0.6483 0.0514
1.1625 0.5737 0.0485
1.1675 0.5995 0.0500
1.1725 0.5447 0.0481
1.1775 0.6245 0.0500
1.1825 0.6545 0.0519
1.1875 0.6734 0.0527
1.1925 0.6835 0.0537
1.1975 0.7330 0.0536
1.2025 0.5775 0.0485
1.2075 0.5880 0.0497
1.2125 0.7339 0.0556
1.2175 0.6991 0.0523
1.2225 0.7063 0.0540
1.2275 0.6217 0.0508
1.2325 0.6465 0.0528
1.2375 0.7563 0.0540
1.2425 0.7141 0.0543
1.2475 0.7533 0.0565
1.2525 0.7125 0.0544
1.2575 0.7211 0.0539
1.2625 0.8092 0.0578
1.2675 0.8151 0.0584
1.2725 0.8925 0.0607
1.2775 0.8509 0.0578
1.2825 0.8846 0.0606
1.2875 0.9280 0.0631
1.2925 0.9693 0.0633
1.2975 0.9835 0.0628
1.3025 1.1499 0.0689
1.3075 1.2093 0.0714
1.3125 1.1606 0.0701
1.3175 1.2341 0.0696
1.3225 1.6979 0.0843
1.3275 2.5721 0.1042
1.3325 1.8397 0.0890
1.3375 1.3241 0.0725
1.3425 1.2120 0.0712
1.3475 1.2097 0.0713
1.3525 1.1271 0.0691
1.3575 1.2932 0.0721
1.3625 1.6833 0.0839
1.3675 2.0760 0.0934
1.3725 1.8956 0.0908
1.3775 1.5610 0.0805
1.3825 1.2914 0.0723
1.3875 1.2861 0.0741
1.3925 1.2792 0.0741
1.3975 1.2849 0.0746
1.4025 1.1849 0.0683
1.4075 1.1712 0.0700
1.4125 1.5651 0.0821
1.4175 2.8503 0.1108
1.4225 4.4852 0.1348
1.4275 3.9183 0.1275
1.4325 2.3974 0.1017
1.4375 1.4844 0.0795
1.4425 1.3432 0.0764
1.4475 1.3297 0.0728
1.4525 1.2757 0.0737
1.4575 1.2380 0.0732
1.4625 1.2623 0.0742
1.4675 1.1848 0.0698
1.4725 1.2605 0.0723
1.4775 1.2288 0.0728
1.4825 1.3118 0.0754
1.4875 1.1574 0.0711
1.4925 1.3525 0.0740
1.4975 1.2432 0.0723
1.5025 1.3647 0.0770
1.5075 1.5016 0.0813
1.5125 1.2504 0.0723
1.5175 1.3823 0.0757
1.5225 1.3797 0.0768
1.5275 1.7467 0.0871
1.5325 2.2918 0.1005
1.5375 2.0364 0.0919
1.5425 1.7023 0.0840
1.5475 1.1086 0.0697
1.5525 1.2023 0.0718
1.5575 1.1094 0.0702
1.5625 0.9827 0.0635
1.5675 0.9484 0.0633
1.5725 0.9825 0.0654
1.5775 1.0743 0.0686
1.5825 0.9418 0.0646
1.5875 1.0642 0.0659
1.5925 0.9775 0.0649
1.5975 1.0641 0.0677
1.6025 0.9336 0.0641
1.6075 0.9729 0.0656
1.6125 0.8659 0.0592
1.6175 0.9912 0.0652
1.6225 0.9202 0.0638
1.6275 0.9420 0.0644
1.6325 0.9470 0.0647
1.6375 0.9101 0.0609
1.6425 1.0041 0.0658
1.6475 0.8970 0.0622
1.6525 0.9688 0.0659
1.6575 1.0494 0.0683
1.6625 1.5361 0.0795
1.6675 2.1445 0.0966
1.6725 3.0354 0.1154
1.6775 4.4740 0.1404
1.6825 4.4989 0.1414
1.6875 3.9802 0.1288
1.6925 2.6879 0.1069
1.6975 2.0050 0.0936
1.7025 1.5096 0.0814
1.7075 1.3682 0.0789
1.7125 1.0969 0.0683
1.7175 1.0932 0.0679
1.7225 0.8677 0.0617
1.7275 0.8182 0.0602
1.7325 0.7603 0.0585
1.7375 0.7430 0.0568
1.7425 0.7613 0.0559
1.7475 0.8095 0.0598
1.7525 0.8623 0.0618
1.7575 0.7515 0.0582
1.7625 0.6747 0.0548
1.7675 0.8255 0.0585
1.7725 0.6689 0.0539
1.7775 0.7003 0.0555
1.7825 0.7669 0.0586
1.7875 0.7157 0.0564
1.7925 0.6767 0.0541
1.7975 0.6568 0.0530
1.8025 0.7075 0.0557
1.8075 0.6505 0.0537
1.8125 0.6652 0.0545
1.8175 0.6160 0.0530
1.8225 0.6725 0.0527
1.8275 0.5797 0.0503
1.8325 0.5023 0.0468
1.8375 0.5283 0.0487
1.8425 0.5515 0.0500
1.8475 0.6627 0.0536
1.8525 0.6482 0.0524
1.8575 0.5942 0.0512
1.8625 0.5984 0.0517
1.8675 0.5542 0.0502
1.8725 0.5840 0.0514
1.8775 0.5419 0.0475
1.8825 0.5539 0.0488
1.8875 0.6402 0.0533
1.8925 0.4586 0.0457
1.8975 0.5048 0.0479
1.9025 0.5043 0.0472
1.9075 0.5126 0.0464
1.9125 0.5031 0.0469
1.9175 0.5380 0.0491
1.9225 0.5316 0.0492
1.9275 0.5543 0.0500
1.9325 0.5815 0.0498
1.9375 0.5066 0.0468
1.9425 0.5422 0.0489
1.9475 0.5593 0.0504
1.9525 0.4549 0.0453
1.9575 0.5313 0.0491
1.9625 0.6084 0.0507
1.9675 0.5898 0.0508
1.9725 0.6273 0.0528
1.9775 0.5606 0.0501
1.9825 0.5542 0.0500
1.9875 0.6065 0.0530
1.9925 0.5648 0.0486
1.9975 0.5983 0.0511
2.0025 0.4736 0.0460
2.0075 0.5920 0.0515
2.0125 0.6317 0.0536
2.0175 0.5669 0.0513
2.0225 0.6845 0.0533
2.0275 0.5601 0.0491
2.0325 0.5130 0.0481
2.0375 0.5509 0.0497
2.0425 0.6173 0.0533
2.0475 0.4207 0.0436
2.0525 0.4293 0.0423
2.0575 0.3862 0.0412
2.0625 0.4103 0.0429
2.0675 0.5284 0.0491
2.0725 0.3782 0.0416
2.0775 0.3770 0.0407
2.0825 0.4627 0.0444
2.0875 0.4189 0.0432
2.0925 0.3928 0.0422
2.0975 0.3866 0.0417
2.1025 0.3971 0.0426
2.1075 0.2964 0.0360
2.1125 0.4093 0.0418
2.1175 0.3163 0.0376
2.1225 0.3936 0.0422
2.1275 0.3555 0.0400
2.1325 0.2669 0.0351
2.1375 0.3416 0.0387
2.1425 0.3496 0.0387
2.1475 0.3639 0.0402
2.1525 0.3814 0.0412
2.1575 0.3438 0.0397
2.1625 0.3129 0.0377
2.1675 0.3064 0.0369
2.1725 0.3083 0.0364
2.1775 0.2762 0.0348
2.1825 0.2984 0.0367
2.1875 0.3665 0.0407
2.1925 0.3234 0.0390
2.1975 0.3634 0.0397
2.2025 0.3217 0.0372
2.2075 0.3064 0.0369
2.2125 0.3478 0.0397
2.2175 0.3301 0.0387
2.2225 0.3376 0.0393
2.2275 0.2977 0.0364
2.2325 0.3328 0.0375
2.2375 0.2673 0.0345
2.2425 0.3527 0.0399
2.2475 0.2339 0.0328
2.2525 0.3222 0.0385
2.2575 0.2503 0.0329
2.2625 0.2975 0.0358
2.2675 0.3356 0.0385
2.2725 0.2560 0.0340
2.2775 0.3098 0.0379
2.2825 0.2835 0.0357
2.2875 0.2254 0.0316
2.2925 0.2772 0.0344
2.2975 0.2751 0.0350
2.3025 0.2497 0.0337
2.3075 0.2306 0.0323
2.3125 0.2926 0.0366
2.3175 0.3055 0.0366
2.3225 0.2429 0.0323
2.3275 0.2543 0.0338
2.3325 0.2501 0.0335
2.3375 0.2255 0.0319
2.3425 0.2616 0.0347
2.3475 0.2439 0.0326
2.3525 0.2288 0.0315
2.3575 0.2682 0.0344
2.3625 0.2449 0.0334
2.3675 0.2610 0.0346
2.3725 0.3310 0.0388
2.3775 0.2039 0.0298
2.3825 0.2453 0.0325
2.3875 0.2370 0.0326
2.3925 0.2470 0.0331
2.3975 0.2560 0.0343
2.4025 0.2920 0.0369
2.4075 0.2406 0.0322
2.4125 0.2826 0.0348
2.4175 0.2251 0.0316
2.4225 0.3191 0.0379
2.4275 0.2789 0.0358
2.4325 0.2078 0.0310
2.4375 0.2632 0.0335
2.4425 0.2157 0.0306
2.4475 0.2296 0.0319
2.4525 0.2914 0.0365
2.4575 0.2631 0.0346
2.4625 0.2121 0.0313
2.4675 0.2516 0.0325
2.4725 0.2244 0.0312
2.4775 0.2527 0.0335
2.4825 0.2651 0.0349
2.4875 0.2344 0.0326
2.4925 0.2816 0.0361
2.4975 0.2157 0.0300
2.5025 0.2365 0.0319
2.5075 0.2538 0.0337
2.5125 0.2160 0.0315
2.5175 0.2472 0.0334
2.5225 0.2594 0.0347
2.5275 0.2902 0.0345
2.5325 0.2878 0.0354
2.5375 0.2787 0.0354
2.5425 0.1964 0.0300
2.5475 0.3308 0.0385
2.5525 0.2645 0.0342
2.5575 0.2358 0.0315
2.5625 0.2264 0.0317
2.5675 0.2063 0.0304
2.5725 0.1727 0.0280
2.5775 0.2720 0.0352
2.5825 0.1983 0.0291
2.5875 0.2476 0.0326
2.5925 0.2570 0.0338
2.5975 0.1490 0.0260
2.6025 0.1994 0.0301
2.6075 0.2575 0.0344
2.6125 0.1797 0.0271
2.6175 0.1788 0.0279
2.6225 0.1564 0.0265
2.6275 0.2427 0.0331
2.6325 0.1719 0.0279
2.6375 0.1947 0.0290
2.6425 0.2032 0.0293
2.6475 0.1943 0.0293
2.6525 0.1819 0.0284
2.6575 0.1926 0.0297
2.6625 0.1375 0.0251
2.6675 0.1392 0.0239
2.6725 0.1789 0.0280
2.6775 0.1322 0.0241
2.6825 0.1552 0.0266
2.6875 0.1492 0.0260
2.6925 0.1486 0.0251
2.6975 0.1193 0.0226
0.2137 0.0156 0.0092
0.2142 0.0306 0.0138
0.2147 0.0240 0.0122
0.2152 0.0375 0.0143
0.2157 0.0223 0.0113
0.2162 0.0285 0.0129
0.2167 0.0246 0.0124
0.2172 0.0213 0.0107
0.2177 0.0050 0.0052
0.2182 0.0176 0.0104
0.2188 0.0237 0.0120
0.2193 0.0268 0.0121
0.2198 0.0254 0.0114
