1.0675 0.4961 0.3522
1.0725 0.7090 0.1006
1.0775 0.5656 0.0802
1.0825 0.6272 0.0773
1.0875 0.5491 0.0631
1.0925 0.6582 0.0676
1.0975 0.6194 0.0636
1.1025 0.6565 0.0623
1.1075 0.7581 0.0617
1.1125 0.6417 0.0581
1.1175 0.6511 0.0565
1.1225 0.6843 0.0554
1.1275 0.6746 0.0534
1.1325 0.7139 0.0556
1.1375 0.8609 0.0610
1.1425 0.6541 0.0509
1.1475 0.8415 0.0591
1.1525 0.9094 0.0623
1.1575 0.8363 0.0584
1.1625 0.8191 0.0579
1.1675 0.9033 0.0614
1.1725 0.8596 0.0605
1.1775 0.8723 0.0591
1.1825 0.9923 0.0639
1.1875 1.0168 0.0648
1.1925 0.9490 0.0633
1.1975 1.0006 0.0626
1.2025 0.9639 0.0626
1.2075 0.8861 0.0610
1.2125 0.9359 0.0628
1.2175 1.0350 0.0636
1.2225 1.0706 0.0665
1.2275 1.0409 0.0657
1.2325 1.0900 0.0685
1.2375 1.1966 0.0680
1.2425 1.2306 0.0713
1.2475 1.0928 0.0680
1.2525 1.2566 0.0722
1.2575 1.2857 0.0720
1.2625 1.1965 0.0703
1.2675 1.3468 0.0751
1.2725 1.3259 0.0740
1.2775 1.2663 0.0705
1.2825 1.2616 0.0724
1.2875 1.3024 0.0748
1.2925 1.5184 0.0792
1.2975 1.3590 0.0739
1.3025 1.4849 0.0783
1.3075 1.4254 0.0776
1.3125 1.4149 0.0774
1.3175 1.3834 0.0737
1.3225 1.4512 0.0779
1.3275 1.5218 0.0801
1.3325 1.5723 0.0823
1.3375 1.7636 0.0837
1.3425 1.6185 0.0823
1.3475 1.9157 0.0897
1.3525 1.7666 0.0865
1.3575 1.8947 0.0872
1.3625 1.6994 0.0843
1.3675 1.8078 0.0872
1.3725 1.8170 0.0889
1.3775 1.9673 0.0904
1.3825 1.8868 0.0874
1.3875 1.9660 0.0917
1.3925 1.8163 0.0883
1.3975 1.8994 0.0907
1.4025 1.8891 0.0862
1.4075 1.9326 0.0899
1.4125 1.9953 0.0927
1.4175 1.9883 0.0926
1.4225 1.8959 0.0876
1.4275 2.0161 0.0915
1.4325 1.8661 0.0897
1.4375 2.0288 0.0929
1.4425 1.9214 0.0914
1.4475 2.2772 0.0953
1.4525 2.0847 0.0942
1.4575 2.0174 0.0935
1.4625 2.0257 0.0941
1.4675 1.9920 0.0905
1.4725 2.2037 0.0956
1.4775 2.1730 0.0968
1.4825 2.0920 0.0952
1.4875 1.9263 0.0917
1.4925 1.9155 0.0881
1.4975 2.0623 0.0931
1.5025 1.6997 0.0860
1.5075 1.6698 0.0858
1.5125 1.8028 0.0869
1.5175 1.9466 0.0899
1.5225 1.9733 0.0918
1.5275 1.7166 0.0864
1.5325 1.9084 0.0917
1.5375 1.7906 0.0862
1.5425 1.7279 0.0847
1.5475 1.6112 0.0841
1.5525 1.6532 0.0842
1.5575 1.7098 0.0872
1.5625 1.5325 0.0793
1.5675 1.4878 0.0792
1.5725 1.5874 0.0831
1.5775 1.6050 0.0839
1.5825 1.6367 0.0851
1.5875 1.4886 0.0779
1.5925 1.5336 0.0813
1.5975 1.3963 0.0776
1.6025 1.3877 0.0782
1.6075 1.4027 0.0788
1.6125 1.5432 0.0790
1.6175 1.4596 0.0791
1.6225 1.4730 0.0807
1.6275 1.4177 0.0790
1.6325 1.4113 0.0790
1.6375 1.4037 0.0757
1.6425 1.4050 0.0778
1.6475 1.2202 0.0725
1.6525 1.2880 0.0760
1.6575 1.2367 0.0741
1.6625 1.1892 0.0700
1.6675 1.1871 0.0718
1.6725 1.1494 0.0710
1.6775 1.2383 0.0739
1.6825 1.0935 0.0697
1.6875 1.0704 0.0668
1.6925 1.0513 0.0669
1.6975 1.0520 0.0678
1.7025 1.0261 0.0671
1.7075 1.0228 0.0682
1.7125 0.9822 0.0647
1.7175 1.0256 0.0658
1.7225 1.0831 0.0689
1.7275 0.9242 0.0639
1.7325 0.9223 0.0645
1.7375 1.0567 0.0678
1.7425 0.9546 0.0625
1.7475 0.9107 0.0635
1.7525 0.9827 0.0659
1.7575 0.8960 0.0635
1.7625 1.0305 0.0677
1.7675 0.9420 0.0625
1.7725 0.9216 0.0633
1.7775 0.9033 0.0631
1.7825 0.8212 0.0607
1.7875 0.7695 0.0585
1.7925 0.6935 0.0548
1.7975 0.8234 0.0593
1.8025 0.8905 0.0625
1.8075 0.8441 0.0611
1.8125 0.8621 0.0620
1.8175 0.8040 0.0606
1.8225 0.6938 0.0535
1.8275 0.8158 0.0597
1.8325 0.7985 0.0590
1.8375 0.7796 0.0591
1.8425 0.6602 0.0547
1.8475 0.5973 0.0509
1.8525 0.6949 0.0543
1.8575 0.7707 0.0583
1.8625 0.7142 0.0565
1.8675 0.6868 0.0559
1.8725 0.7059 0.0565
1.8775 0.7546 0.0561
1.8825 0.6353 0.0522
1.8875 0.6580 0.0541
1.8925 0.7137 0.0570
1.8975 0.6369 0.0538
1.9025 0.6150 0.0522
1.9075 0.6220 0.0511
1.9125 0.7515 0.0573
1.9175 0.6638 0.0546
1.9225 0.6373 0.0538
1.9275 0.5906 0.0516
1.9325 0.5647 0.0491
1.9375 0.5367 0.0482
1.9425 0.5906 0.0510
1.9475 0.6231 0.0532
1.9525 0.5271 0.0487
1.9575 0.6767 0.0555
1.9625 0.5700 0.0490
1.9675 0.6162 0.0519
1.9725 0.6447 0.0535
1.9775 0.4660 0.0457
1.9825 0.5228 0.0485
1.9875 0.5602 0.0509
1.9925 0.5019 0.0458
1.9975 0.5463 0.0488
2.0025 0.4510 0.0449
2.0075 0.5464 0.0495
2.0125 0.6093 0.0526
2.0175 0.5159 0.0490
2.0225 0.4397 0.0427
2.0275 0.4176 0.0424
2.0325 0.4859 0.0468
2.0375 0.4526 0.0451
2.0425 0.4793 0.0470
2.0475 0.4934 0.0472
2.0525 0.4749 0.0445
2.0575 0.5395 0.0488
2.0625 0.4993 0.0473
2.0675 0.4566 0.0457
2.0725 0.4827 0.0469
2.0775 0.4859 0.0462
2.0825 0.5181 0.0470
2.0875 0.3964 0.0421
2.0925 0.4339 0.0443
2.0975 0.4005 0.0425
2.1025 0.4379 0.0447
2.1075 0.4837 0.0460
2.1125 0.4180 0.0423
2.1175 0.4056 0.0426
2.1225 0.3431 0.0394
2.1275 0.5171 0.0483
2.1325 0.4281 0.0444
2.1375 0.4470 0.0443
2.1425 0.3793 0.0403
2.1475 0.3775 0.0410
2.1525 0.3330 0.0385
2.1575 0.2611 0.0346
2.1625 0.4038 0.0428
2.1675 0.3996 0.0421
2.1725 0.3811 0.0404
2.1775 0.4166 0.0427
2.1825 0.4612 0.0457
2.1875 0.3842 0.0417
2.1925 0.3659 0.0414
2.1975 0.3675 0.0399
2.2025 0.3733 0.0400
2.2075 0.3289 0.0382
2.2125 0.3661 0.0407
2.2175 0.4159 0.0434
2.2225 0.3422 0.0395
2.2275 0.3818 0.0412
2.2325 0.3245 0.0370
2.2375 0.3435 0.0392
2.2425 0.3393 0.0392
2.2475 0.3258 0.0387
2.2525 0.3315 0.0391
2.2575 0.3978 0.0415
2.2625 0.3486 0.0388
2.2675 0.2871 0.0356
2.2725 0.4053 0.0427
2.2775 0.2960 0.0370
2.2825 0.2925 0.0363
2.2875 0.3621 0.0400
2.2925 0.2902 0.0352
2.2975 0.3638 0.0402
2.3025 0.3450 0.0396
2.3075 0.2627 0.0345
2.3125 0.2879 0.0363
2.3175 0.3280 0.0379
2.3225 0.2807 0.0347
2.3275 0.3581 0.0401
2.3325 0.2592 0.0341
2.3375 0.2892 0.0362
2.3425 0.2660 0.0350
2.3475 0.2564 0.0335
2.3525 0.2547 0.0332
2.3575 0.2596 0.0338
2.3625 0.2726 0.0352
2.3675 0.3615 0.0407
2.3725 0.3175 0.0380
2.3775 0.3341 0.0381
2.3825 0.3312 0.0378
2.3875 0.3265 0.0383
2.3925 0.3175 0.0375
2.3975 0.3020 0.0372
2.4025 0.3110 0.0380
2.4075 0.2881 0.0352
2.4125 0.2741 0.0343
2.4175 0.2604 0.0339
2.4225 0.2877 0.0360
2.4275 0.2793 0.0358
2.4325 0.3465 0.0400
2.4375 0.2884 0.0350
2.4425 0.2891 0.0354
2.4475 0.3045 0.0367
2.4525 0.2913 0.0365
2.4575 0.2993 0.0369
2.4625 0.2677 0.0352
2.4675 0.2890 0.0348
2.4725 0.2636 0.0338
2.4775 0.3150 0.0374
2.4825 0.2376 0.0330
2.4875 0.2979 0.0367
2.4925 0.2908 0.0367
2.4975 0.2537 0.0325
2.5025 0.2105 0.0301
2.5075 0.2761 0.0351
2.5125 0.2850 0.0362
2.5175 0.2247 0.0318
2.5225 0.2083 0.0311
2.5275 0.2123 0.0295
2.5325 0.2397 0.0324
2.5375 0.2696 0.0348
2.5425 0.2241 0.0321
2.5475 0.2502 0.0335
2.5525 0.2910 0.0359
2.5575 0.2312 0.0312
2.5625 0.2440 0.0329
2.5675 0.2644 0.0344
2.5725 0.2591 0.0343
2.5775 0.1903 0.0294
2.5825 0.2114 0.0300
2.5875 0.2306 0.0315
2.5925 0.2131 0.0308
2.5975 0.2481 0.0335
2.6025 0.2632 0.0346
2.6075 0.2531 0.0341
2.6125 0.2165 0.0298
2.6175 0.2620 0.0338
2.6225 0.1971 0.0297
2.6275 0.1438 0.0255
2.6325 0.1491 0.0260
2.6375 0.2381 0.0321
2.6425 0.2158 0.0302
2.6475 0.1943 0.0293
2.6525 0.2132 0.0308
2.6575 0.1694 0.0279
2.6625 0.1559 0.0267
2.6675 0.1679 0.0262
2.6725 0.2270 0.0315
2.6775 0.1717 0.0275
2.6825 0.1503 0.0262
2.6875 0.1534 0.0263
2.6925 0.1659 0.0266
2.6975 0.1496 0.0253
0.2137 0.0156 0.0092
0.2142 0.0306 0.0138
0.2147 0.0240 0.0122
0.2152 0.0375 0.0143
0.2157 0.0223 0.0113
0.2162 0.0285 0.0129
0.2167 0.0246 0.0124
0.2172 0.0213 0.0107
0.2177 0.0050 0.0052
0.2182 0.0176 0.0104
0.2188 0.0237 0.0120
0.2193 0.0268 0.0121
0.2198 0.0254 0.0114
