1.0675 0.9852 0.4963
1.0725 1.0628 0.1232
1.0775 0.9616 0.1045
1.0825 0.8456 0.0897
1.0875 0.7594 0.0742
1.0925 1.0678 0.0861
1.0975 1.0112 0.0813
1.1025 0.9579 0.0753
1.1075 0.8677 0.0660
1.1125 0.9837 0.0720
1.1175 1.0820 0.0728
1.1225 0.9670 0.0659
1.1275 1.1341 0.0692
1.1325 0.9212 0.0632
1.1375 1.0261 0.0666
1.1425 1.0749 0.0653
1.1475 1.0531 0.0661
1.1525 1.2132 0.0720
1.1575 1.1509 0.0685
1.1625 1.1434 0.0685
1.1675 1.1409 0.0689
1.1725 1.0595 0.0671
1.1775 1.1450 0.0677
1.1825 1.2639 0.0721
1.1875 1.0622 0.0663
1.1925 1.2744 0.0733
1.1975 1.2268 0.0694
1.2025 1.3454 0.0740
1.2075 1.3026 0.0740
1.2125 1.2109 0.0715
1.2175 1.3939 0.0738
1.2225 1.3970 0.0760
1.2275 1.3854 0.0758
1.2325 1.4309 0.0785
1.2375 1.4445 0.0747
1.2425 1.4169 0.0765
1.2475 1.4099 0.0773
1.2525 1.4219 0.0768
1.2575 1.4667 0.0769
1.2625 1.3905 0.0758
1.2675 1.6563 0.0832
1.2725 1.5244 0.0794
1.2775 1.4664 0.0758
1.2825 1.5943 0.0813
1.2875 1.5940 0.0827
1.2925 1.5843 0.0809
1.2975 1.5676 0.0793
1.3025 1.5674 0.0805
1.3075 1.6277 0.0829
1.3125 1.6771 0.0843
1.3175 1.5366 0.0776
1.3225 1.6224 0.0824
1.3275 1.5302 0.0804
1.3325 1.6935 0.0854
1.3375 1.7717 0.0838
1.3425 1.7432 0.0854
1.3475 1.9110 0.0896
1.3525 1.7459 0.0860
1.3575 1.8474 0.0861
1.3625 1.8383 0.0877
1.3675 1.8869 0.0890
1.3725 1.9164 0.0913
1.3775 1.8799 0.0883
1.3825 1.8332 0.0862
1.3875 1.7702 0.0870
1.3925 1.6231 0.0835
1.3975 1.7563 0.0872
1.4025 1.8741 0.0859
1.4075 1.7866 0.0865
1.4125 1.7367 0.0865
1.4175 1.8979 0.0904
1.4225 1.8754 0.0871
1.4275 1.7669 0.0856
1.4325 1.9441 0.0915
1.4375 1.8166 0.0879
1.4425 1.7259 0.0866
1.4475 1.7119 0.0826
1.4525 1.8887 0.0897
1.4575 1.6796 0.0853
1.4625 1.6547 0.0850
1.4675 1.8482 0.0872
1.4725 1.6927 0.0838
1.4775 1.8664 0.0897
1.4825 1.7674 0.0875
1.4875 1.6197 0.0841
1.4925 1.7295 0.0837
1.4975 1.5917 0.0818
1.5025 1.7381 0.0869
1.5075 1.6647 0.0856
1.5125 1.6488 0.0831
1.5175 1.6762 0.0834
1.5225 1.4489 0.0787
1.5275 1.5647 0.0825
1.5325 1.6221 0.0845
1.5375 1.6193 0.0820
1.5425 1.4922 0.0787
1.5475 1.5727 0.0831
1.5525 1.4933 0.0801
1.5575 1.6081 0.0845
1.5625 1.4338 0.0767
1.5675 1.3531 0.0756
1.5725 1.3901 0.0777
1.5775 1.2798 0.0749
1.5825 1.4406 0.0798
1.5875 1.4441 0.0768
1.5925 1.4003 0.0777
1.5975 1.3095 0.0751
1.6025 1.1712 0.0718
1.6075 1.4025 0.0788
1.6125 1.1945 0.0695
1.6175 1.1715 0.0709
1.6225 1.2653 0.0748
1.6275 1.2461 0.0741
1.6325 1.1507 0.0714
1.6375 1.1224 0.0677
1.6425 1.2976 0.0748
1.6475 1.1812 0.0714
1.6525 1.2511 0.0749
1.6575 1.1060 0.0701
1.6625 1.1857 0.0699
1.6675 1.1917 0.0720
1.6725 1.1848 0.0721
1.6775 1.0576 0.0683
1.6825 1.2125 0.0734
1.6875 1.0587 0.0664
1.6925 1.0472 0.0668
1.6975 1.0566 0.0679
1.7025 1.0743 0.0686
1.7075 1.1133 0.0711
1.7125 0.8924 0.0616
1.7175 1.0762 0.0674
1.7225 0.9736 0.0653
1.7275 0.8847 0.0626
1.7325 0.9355 0.0649
1.7375 0.9650 0.0648
1.7425 1.0155 0.0645
1.7475 0.9688 0.0655
1.7525 0.9517 0.0649
1.7575 1.0530 0.0689
1.7625 0.9372 0.0645
1.7675 0.8294 0.0587
1.7725 0.9174 0.0632
1.7775 0.8811 0.0623
1.7825 0.9147 0.0640
1.7875 0.8269 0.0606
1.7925 0.9114 0.0628
1.7975 0.7886 0.0581
1.8025 0.8432 0.0608
1.8075 0.8433 0.0611
1.8125 0.7681 0.0586
1.8175 0.8164 0.0611
1.8225 0.7968 0.0574
1.8275 0.7454 0.0571
1.8325 0.7773 0.0583
1.8375 0.8023 0.0600
1.8425 0.7426 0.0580
1.8475 0.7402 0.0566
1.8525 0.6522 0.0526
1.8575 0.7883 0.0589
1.8625 0.9467 0.0650
1.8675 0.6415 0.0540
1.8725 0.6469 0.0541
1.8775 0.7129 0.0545
1.8825 0.7165 0.0555
1.8875 0.7025 0.0559
1.8925 0.7320 0.0577
1.8975 0.6776 0.0555
1.9025 0.6680 0.0544
1.9075 0.6723 0.0532
1.9125 0.7430 0.0570
1.9175 0.6724 0.0549
1.9225 0.6914 0.0561
1.9275 0.6803 0.0554
1.9325 0.6716 0.0536
1.9375 0.6584 0.0534
1.9425 0.6568 0.0538
1.9475 0.5778 0.0512
1.9525 0.5771 0.0510
1.9575 0.5952 0.0520
1.9625 0.5360 0.0476
1.9675 0.6815 0.0546
1.9725 0.5694 0.0503
1.9775 0.5472 0.0495
1.9825 0.6580 0.0544
1.9875 0.6619 0.0554
1.9925 0.5986 0.0500
1.9975 0.6109 0.0516
2.0025 0.5579 0.0499
2.0075 0.6095 0.0523
2.0125 0.5588 0.0504
2.0175 0.4977 0.0481
2.0225 0.5970 0.0498
2.0275 0.4568 0.0444
2.0325 0.5407 0.0494
2.0375 0.6136 0.0525
2.0425 0.5527 0.0505
2.0475 0.4888 0.0470
2.0525 0.4257 0.0421
2.0575 0.4835 0.0462
2.0625 0.5354 0.0490
2.0675 0.4689 0.0463
2.0725 0.4792 0.0468
2.0775 0.4331 0.0436
2.0825 0.5009 0.0462
2.0875 0.4584 0.0452
2.0925 0.4477 0.0450
2.0975 0.5083 0.0478
2.1025 0.5109 0.0483
2.1075 0.4964 0.0466
2.1125 0.5889 0.0502
2.1175 0.4590 0.0453
2.1225 0.3979 0.0424
2.1275 0.5134 0.0481
2.1325 0.4372 0.0449
2.1375 0.5041 0.0470
2.1425 0.4438 0.0435
2.1475 0.4484 0.0446
2.1525 0.4843 0.0464
2.1575 0.3849 0.0420
2.1625 0.4447 0.0450
2.1675 0.4667 0.0455
2.1725 0.4799 0.0454
2.1775 0.4342 0.0436
2.1825 0.4612 0.0457
2.1875 0.4070 0.0429
2.1925 0.4129 0.0440
2.1975 0.4411 0.0437
2.2025 0.5015 0.0464
2.2075 0.4667 0.0455
2.2125 0.3569 0.0402
2.2175 0.4297 0.0441
2.2225 0.4519 0.0454
2.2275 0.3689 0.0405
2.2325 0.4090 0.0415
2.2375 0.4509 0.0449
2.2425 0.4112 0.0431
2.2475 0.4542 0.0456
2.2525 0.4005 0.0430
2.2575 0.4364 0.0435
2.2625 0.4310 0.0431
2.2675 0.3623 0.0400
2.2725 0.4092 0.0429
2.2775 0.3703 0.0414
2.2825 0.3199 0.0380
2.2875 0.3311 0.0383
2.2925 0.4271 0.0427
2.2975 0.4482 0.0446
2.3025 0.3810 0.0416
2.3075 0.4299 0.0441
2.3125 0.3384 0.0393
2.3175 0.4848 0.0461
2.3225 0.3324 0.0378
2.3275 0.3710 0.0408
2.3325 0.3489 0.0396
2.3375 0.3885 0.0419
2.3425 0.4365 0.0449
2.3475 0.3394 0.0385
2.3525 0.3845 0.0408
2.3575 0.3874 0.0413
2.3625 0.3585 0.0404
2.3675 0.4301 0.0444
2.3725 0.3904 0.0421
2.3775 0.3729 0.0403
2.3825 0.4343 0.0433
2.3875 0.3622 0.0403
2.3925 0.3086 0.0370
2.3975 0.3525 0.0402
2.4025 0.3762 0.0418
2.4075 0.3568 0.0392
2.4125 0.3592 0.0393
2.4175 0.3090 0.0370
2.4225 0.3820 0.0415
2.4275 0.3524 0.0402
2.4325 0.3280 0.0390
2.4375 0.3736 0.0399
2.4425 0.3460 0.0387
2.4475 0.4106 0.0426
2.4525 0.3282 0.0387
2.4575 0.3355 0.0391
2.4625 0.3559 0.0406
2.4675 0.3394 0.0378
2.4725 0.3152 0.0369
2.4775 0.3814 0.0412
2.4825 0.3429 0.0397
2.4875 0.4380 0.0445
2.4925 0.3693 0.0413
2.4975 0.4199 0.0418
2.5025 0.3481 0.0387
2.5075 0.4102 0.0428
2.5125 0.3128 0.0380
2.5175 0.2966 0.0365
2.5225 0.3895 0.0426
2.5275 0.3268 0.0366
2.5325 0.2920 0.0357
2.5375 0.3233 0.0382
2.5425 0.3982 0.0427
2.5475 0.3709 0.0408
2.5525 0.2867 0.0356
2.5575 0.3541 0.0387
2.5625 0.3550 0.0397
2.5675 0.3137 0.0375
2.5725 0.3002 0.0369
2.5775 0.3077 0.0374
2.5825 0.3553 0.0389
2.5875 0.2433 0.0323
2.5925 0.3464 0.0392
2.5975 0.3073 0.0373
2.6025 0.3274 0.0386
2.6075 0.2992 0.0371
2.6125 0.3889 0.0399
2.6175 0.2835 0.0352
2.6225 0.3047 0.0370
2.6275 0.2884 0.0360
2.6325 0.3032 0.0370
2.6375 0.3073 0.0365
2.6425 0.3133 0.0364
2.6475 0.3227 0.0378
2.6525 0.2624 0.0341
2.6575 0.2341 0.0328
2.6625 0.3348 0.0392
2.6675 0.2579 0.0325
2.6725 0.2713 0.0344
2.6775 0.2426 0.0327
2.6825 0.2924 0.0365
2.6875 0.2715 0.0350
2.6925 0.1998 0.0292
2.6975 0.2137 0.0302
0.2137 0.0156 0.0092
0.2142 0.0306 0.0138
0.2147 0.0240 0.0122
0.2152 0.0375 0.0143
0.2157 0.0223 0.0113
0.2162 0.0285 0.0129
0.2167 0.0246 0.0124
0.2172 0.0213 0.0107
0.2177 0.0050 0.0052
0.2182 0.0176 0.0104
0.2188 0.0237 0.0120
0.2193 0.0268 0.0121
0.2198 0.0254 0.0114
