1.0675 0.9885 0.4971
1.0725 0.7936 0.1065
1.0775 0.5661 0.0802
1.0825 0.7315 0.0835
1.0875 0.6500 0.0686
1.0925 0.7763 0.0734
1.0975 0.6983 0.0676
1.1025 0.6026 0.0597
1.1075 0.7179 0.0601
1.1125 0.8201 0.0657
1.1175 0.6949 0.0584
1.1225 0.7430 0.0577
1.1275 0.7671 0.0569
1.1325 0.7960 0.0587
1.1375 0.7616 0.0574
1.1425 0.8802 0.0591
1.1475 0.7880 0.0572
1.1525 0.7175 0.0554
1.1575 0.8446 0.0587
1.1625 0.9749 0.0632
1.1675 0.9244 0.0621
1.1725 0.9913 0.0649
1.1775 0.9456 0.0615
1.1825 0.8472 0.0590
1.1875 0.9464 0.0625
1.1925 0.9578 0.0636
1.1975 0.9251 0.0602
1.2025 0.9996 0.0637
1.2075 0.9661 0.0637
1.2125 1.1215 0.0688
1.2175 1.0504 0.0641
1.2225 1.0577 0.0661
1.2275 1.1117 0.0679
1.2325 1.1810 0.0713
1.2375 1.0609 0.0640
1.2425 1.2020 0.0705
1.2475 1.2360 0.0724
1.2525 1.2021 0.0706
1.2575 1.2696 0.0716
1.2625 1.3083 0.0735
1.2675 1.1549 0.0695
1.2725 1.4866 0.0784
1.2775 1.4659 0.0758
1.2825 1.4202 0.0768
1.2875 1.3625 0.0765
1.2925 1.4068 0.0762
1.2975 1.4790 0.0771
1.3025 1.4061 0.0762
1.3075 1.6312 0.0830
1.3125 1.5848 0.0819
1.3175 1.5041 0.0768
1.3225 1.7310 0.0851
1.3275 1.7156 0.0851
1.3325 1.7709 0.0874
1.3375 1.7041 0.0822
1.3425 1.7769 0.0862
1.3475 1.6917 0.0843
1.3525 1.8561 0.0887
1.3575 1.6747 0.0820
1.3625 1.8760 0.0886
1.3675 1.8618 0.0884
1.3725 1.8650 0.0900
1.3775 1.8885 0.0885
1.3825 2.0001 0.0900
1.3875 1.8338 0.0885
1.3925 1.9413 0.0913
1.3975 2.0033 0.0931
1.4025 1.9760 0.0882
1.4075 1.9249 0.0897
1.4125 2.0562 0.0941
1.4175 1.8853 0.0901
1.4225 1.9773 0.0895
1.4275 2.0707 0.0927
1.4325 2.0129 0.0931
1.4375 2.0166 0.0926
1.4425 1.9526 0.0921
1.4475 1.9383 0.0879
1.4525 2.0456 0.0933
1.4575 1.9523 0.0919
1.4625 1.8821 0.0907
1.4675 1.9550 0.0897
1.4725 2.1450 0.0943
1.4775 2.0259 0.0934
1.4825 2.1014 0.0954
1.4875 1.8352 0.0895
1.4925 1.9128 0.0880
1.4975 1.9613 0.0908
1.5025 2.0126 0.0935
1.5075 1.7748 0.0884
1.5125 1.7197 0.0848
1.5175 1.6893 0.0837
1.5225 1.7692 0.0870
1.5275 1.8727 0.0902
1.5325 1.7063 0.0867
1.5375 1.7940 0.0863
1.5425 1.6164 0.0819
1.5475 1.6283 0.0845
1.5525 1.5887 0.0826
1.5575 1.4118 0.0792
1.5625 1.5282 0.0791
1.5675 1.6064 0.0823
1.5725 1.6032 0.0835
1.5775 1.3936 0.0782
1.5825 1.4197 0.0793
1.5875 1.4024 0.0757
1.5925 1.4079 0.0779
1.5975 1.3398 0.0760
1.6025 1.3440 0.0769
1.6075 1.4561 0.0803
1.6125 1.4740 0.0772
1.6175 1.3816 0.0770
1.6225 1.3367 0.0769
1.6275 1.2151 0.0732
1.6325 1.3722 0.0779
1.6375 1.2283 0.0708
1.6425 1.3840 0.0772
1.6475 1.2243 0.0726
1.6525 1.1665 0.0723
1.6575 1.2353 0.0741
1.6625 1.2384 0.0714
1.6675 1.1436 0.0705
1.6725 1.1491 0.0710
1.6775 1.0037 0.0665
1.6825 1.0751 0.0691
1.6875 1.1628 0.0696
1.6925 1.1587 0.0702
1.6975 1.1219 0.0700
1.7025 0.9695 0.0652
1.7075 1.2091 0.0741
1.7125 1.1481 0.0699
1.7175 1.0886 0.0678
1.7225 1.0472 0.0678
1.7275 1.0041 0.0667
1.7325 0.9768 0.0663
1.7375 0.9948 0.0658
1.7425 0.9788 0.0633
1.7475 0.9201 0.0638
1.7525 0.9738 0.0656
1.7575 0.9180 0.0643
1.7625 0.9691 0.0656
1.7675 0.8295 0.0587
1.7725 0.9257 0.0634
1.7775 0.8152 0.0599
1.7825 0.8921 0.0632
1.7875 0.8004 0.0596
1.7925 0.9235 0.0632
1.7975 0.7883 0.0580
1.8025 0.7373 0.0569
1.8075 0.8357 0.0608
1.8125 0.7367 0.0573
1.8175 0.8028 0.0605
1.8225 0.7887 0.0571
1.8275 0.8377 0.0605
1.8325 0.8638 0.0614
1.8375 0.7843 0.0593
1.8425 0.7376 0.0578
1.8475 0.7357 0.0564
1.8525 0.7596 0.0567
1.8575 0.7136 0.0561
1.8625 0.6701 0.0547
1.8675 0.7140 0.0570
1.8725 0.8012 0.0602
1.8775 0.6672 0.0527
1.8825 0.7643 0.0573
1.8875 0.6623 0.0543
1.8925 0.6459 0.0542
1.8975 0.7549 0.0586
1.9025 0.7045 0.0558
1.9075 0.6680 0.0530
1.9125 0.7648 0.0578
1.9175 0.5781 0.0509
1.9225 0.7142 0.0570
1.9275 0.6177 0.0527
1.9325 0.7232 0.0556
1.9375 0.6369 0.0525
1.9425 0.6259 0.0525
1.9475 0.5321 0.0492
1.9525 0.6265 0.0531
1.9575 0.5316 0.0492
1.9625 0.4810 0.0451
1.9675 0.6163 0.0519
1.9725 0.5821 0.0509
1.9775 0.6145 0.0525
1.9825 0.5816 0.0512
1.9875 0.5462 0.0503
1.9925 0.4477 0.0433
1.9975 0.4803 0.0458
2.0025 0.5670 0.0503
2.0075 0.5871 0.0513
2.0125 0.5909 0.0518
2.0175 0.5813 0.0520
2.0225 0.4980 0.0455
2.0275 0.4606 0.0446
2.0325 0.5137 0.0481
2.0375 0.4930 0.0470
2.0425 0.4976 0.0479
2.0475 0.5071 0.0479
2.0525 0.4789 0.0447
2.0575 0.5046 0.0471
2.0625 0.4456 0.0447
2.0675 0.4191 0.0437
2.0725 0.4971 0.0476
2.0775 0.4508 0.0445
2.0825 0.4974 0.0460
2.0875 0.3962 0.0421
2.0925 0.4613 0.0457
2.0975 0.3509 0.0398
2.1025 0.4290 0.0443
2.1075 0.4139 0.0425
2.1125 0.3582 0.0391
2.1175 0.4502 0.0448
2.1225 0.3794 0.0414
2.1275 0.3641 0.0405
2.1325 0.4557 0.0458
2.1375 0.3857 0.0411
2.1425 0.3965 0.0412
2.1475 0.4172 0.0431
2.1525 0.4082 0.0426
2.1575 0.4532 0.0456
2.1625 0.3587 0.0404
2.1675 0.3687 0.0405
2.1725 0.3859 0.0407
2.1775 0.3417 0.0387
2.1825 0.3070 0.0373
2.1875 0.3932 0.0422
2.1925 0.3327 0.0395
2.1975 0.4109 0.0422
2.2025 0.3556 0.0391
2.2075 0.3597 0.0400
2.2125 0.3839 0.0417
2.2175 0.4118 0.0432
2.2225 0.4474 0.0452
2.2275 0.3686 0.0405
2.2325 0.3456 0.0382
2.2375 0.4104 0.0428
2.2425 0.3706 0.0410
2.2475 0.3851 0.0420
2.2525 0.3867 0.0422
2.2575 0.2206 0.0309
2.2625 0.3621 0.0395
2.2675 0.3139 0.0373
2.2725 0.2651 0.0346
2.2775 0.4161 0.0439
2.2825 0.3468 0.0395
2.2875 0.3443 0.0390
2.2925 0.2900 0.0352
2.2975 0.3237 0.0379
2.3025 0.2630 0.0346
2.3075 0.3030 0.0370
2.3125 0.3293 0.0388
2.3175 0.3495 0.0391
2.3225 0.2890 0.0352
2.3275 0.2859 0.0358
2.3325 0.3440 0.0393
2.3375 0.2750 0.0353
2.3425 0.2621 0.0348
2.3475 0.3224 0.0375
2.3525 0.3022 0.0362
2.3575 0.3213 0.0376
2.3625 0.3632 0.0406
2.3675 0.2701 0.0352
2.3725 0.3492 0.0398
2.3775 0.3124 0.0369
2.3825 0.3439 0.0385
2.3875 0.2638 0.0344
2.3925 0.2563 0.0337
2.3975 0.2561 0.0343
2.4025 0.3201 0.0386
2.4075 0.2925 0.0355
2.4125 0.3211 0.0371
2.4175 0.2649 0.0342
2.4225 0.3282 0.0384
2.4275 0.3205 0.0383
2.4325 0.2771 0.0358
2.4375 0.3099 0.0363
2.4425 0.2804 0.0348
2.4475 0.3047 0.0367
2.4525 0.3415 0.0395
2.4575 0.2585 0.0343
2.4625 0.2681 0.0352
2.4675 0.3231 0.0368
2.4725 0.2721 0.0343
2.4775 0.2661 0.0344
2.4825 0.3067 0.0375
2.4875 0.3069 0.0373
2.4925 0.2956 0.0370
2.4975 0.2866 0.0346
2.5025 0.2752 0.0344
2.5075 0.2898 0.0360
2.5125 0.2938 0.0368
2.5175 0.2649 0.0345
2.5225 0.2830 0.0363
2.5275 0.2575 0.0325
2.5325 0.2396 0.0323
2.5375 0.2606 0.0343
2.5425 0.2975 0.0369
2.5475 0.3085 0.0372
2.5525 0.2206 0.0312
2.5575 0.3159 0.0365
2.5625 0.2220 0.0314
2.5675 0.2378 0.0327
2.5725 0.2912 0.0364
2.5775 0.2762 0.0354
2.5825 0.2531 0.0328
2.5875 0.2310 0.0315
2.5925 0.2388 0.0326
2.5975 0.2438 0.0332
2.6025 0.2450 0.0334
2.6075 0.1931 0.0298
2.6125 0.1597 0.0256
2.6175 0.2137 0.0305
2.6225 0.2150 0.0310
2.6275 0.2071 0.0305
2.6325 0.1806 0.0286
2.6375 0.1514 0.0256
2.6425 0.2075 0.0297
2.6475 0.2210 0.0313
2.6525 0.1689 0.0274
2.6575 0.1926 0.0297
2.6625 0.1603 0.0271
2.6675 0.1432 0.0242
2.6725 0.1788 0.0279
2.6775 0.1673 0.0272
2.6825 0.1735 0.0281
2.6875 0.1581 0.0267
2.6925 0.1487 0.0252
2.6975 0.1324 0.0238
0.2137 0.0156 0.0092
0.2142 0.0306 0.0138
0.2147 0.0240 0.0122
0.2152 0.0375 0.0143
0.2157 0.0223 0.0113
0.2162 0.0285 0.0129
0.2167 0.0246 0.0124
0.2172 0.0213 0.0107
0.2177 0.0050 0.0052
0.2182 0.0176 0.0104
0.2188 0.0237 0.0120
0.2193 0.0268 0.0121
0.2198 0.0254 0.0114
