1.0675 -0.0004 1.0000
1.0725 0.2129 0.0551
1.0775 0.1580 0.0424
1.0825 0.1896 0.0425
1.0875 0.1805 0.0362
1.0925 0.2007 0.0373
1.0975 0.0974 0.0252
1.1025 0.2245 0.0364
1.1075 0.2157 0.0329
1.1125 0.1626 0.0293
1.1175 0.1465 0.0268
1.1225 0.1876 0.0290
1.1275 0.2019 0.0292
1.1325 0.1814 0.0280
1.1375 0.2422 0.0324
1.1425 0.2931 0.0341
1.1475 0.3065 0.0357
1.1525 0.4482 0.0438
1.1575 0.5013 0.0452
1.1625 0.3730 0.0391
1.1675 0.2495 0.0322
1.1725 0.2211 0.0307
1.1775 0.2237 0.0299
1.1825 0.2794 0.0339
1.1875 0.3467 0.0379
1.1925 0.3878 0.0405
1.1975 0.3367 0.0363
1.2025 0.2801 0.0337
1.2075 0.2433 0.0320
1.2125 0.2229 0.0307
1.2175 0.2381 0.0305
1.2225 0.3057 0.0355
1.2275 0.3066 0.0357
1.2325 0.2929 0.0355
1.2375 0.3391 0.0362
1.2425 0.3093 0.0358
1.2475 0.3216 0.0369
1.2525 0.3683 0.0391
1.2575 0.3140 0.0356
1.2625 0.4001 0.0407
1.2675 0.3640 0.0390
1.2725 0.4994 0.0454
1.2775 0.4152 0.0404
1.2825 0.4482 0.0431
1.2875 0.3778 0.0403
1.2925 0.3257 0.0367
1.2975 0.4594 0.0430
1.3025 0.6461 0.0517
1.3075 1.0715 0.0672
1.3125 1.0416 0.0664
1.3175 0.7480 0.0542
1.3225 0.8065 0.0581
1.3275 1.6572 0.0836
1.3325 2.8175 0.1102
1.3375 2.5915 0.1014
1.3425 1.4547 0.0780
1.3475 0.6332 0.0516
1.3525 0.5500 0.0483
1.3575 0.6820 0.0523
1.3625 0.7415 0.0557
1.3675 1.3196 0.0745
1.3725 2.2868 0.0997
1.3775 1.9960 0.0910
1.3825 1.2748 0.0718
1.3875 0.6574 0.0530
1.3925 0.5279 0.0476
1.3975 0.5319 0.0480
1.4025 0.5034 0.0445
1.4075 0.6025 0.0502
1.4125 0.5943 0.0506
1.4175 0.9182 0.0629
1.4225 2.4709 0.1000
1.4275 6.2286 0.1608
1.4325 7.5489 0.1804
1.4375 3.8755 0.1284
1.4425 1.4128 0.0784
1.4475 0.7279 0.0539
1.4525 0.6251 0.0516
1.4575 0.5839 0.0503
1.4625 0.5500 0.0490
1.4675 0.5099 0.0458
1.4725 0.4811 0.0447
1.4775 0.5041 0.0466
1.4825 0.5240 0.0476
1.4875 0.4975 0.0466
1.4925 0.6318 0.0506
1.4975 0.5628 0.0486
1.5025 0.5821 0.0503
1.5075 0.6339 0.0528
1.5125 0.6691 0.0529
1.5175 0.7719 0.0566
1.5225 0.7305 0.0559
1.5275 0.9119 0.0630
1.5325 1.5774 0.0834
1.5375 3.0868 0.1132
1.5425 3.1941 0.1151
1.5475 2.0217 0.0942
1.5525 0.9724 0.0646
1.5575 0.5594 0.0499
1.5625 0.6348 0.0510
1.5675 0.5354 0.0475
1.5725 0.4810 0.0457
1.5775 0.5172 0.0476
1.5825 0.4994 0.0470
1.5875 0.4398 0.0424
1.5925 0.5594 0.0491
1.5975 0.4863 0.0458
1.6025 0.5237 0.0480
1.6075 0.6147 0.0522
1.6125 0.5785 0.0484
1.6175 0.5233 0.0474
1.6225 0.5040 0.0472
1.6275 0.4578 0.0449
1.6325 0.4736 0.0458
1.6375 0.4568 0.0432
1.6425 0.5862 0.0503
1.6475 0.5476 0.0486
1.6525 0.5828 0.0511
1.6575 0.5643 0.0501
1.6625 0.7778 0.0566
1.6675 0.8828 0.0620
1.6725 1.3294 0.0764
1.6775 2.2690 0.1000
1.6825 4.2971 0.1382
1.6875 6.5899 0.1657
1.6925 9.0801 0.1966
1.6975 8.3203 0.1906
1.7025 6.0687 0.1631
1.7075 4.0546 0.1358
1.7125 2.6881 0.1070
1.7175 2.0264 0.0925
1.7225 1.4159 0.0788
1.7275 1.0088 0.0668
1.7325 1.0173 0.0677
1.7375 0.7605 0.0575
1.7425 0.7291 0.0547
1.7475 0.7257 0.0567
1.7525 0.6062 0.0518
1.7575 0.6391 0.0537
1.7625 0.6265 0.0528
1.7675 0.7007 0.0539
1.7725 0.5824 0.0503
1.7775 0.5945 0.0512
1.7825 0.6320 0.0532
1.7875 0.6181 0.0524
1.7925 0.5163 0.0473
1.7975 0.5799 0.0498
1.8025 0.4625 0.0450
1.8075 0.5521 0.0494
1.8125 0.5133 0.0479
1.8175 0.6070 0.0526
1.8225 0.5038 0.0456
1.8275 0.4669 0.0452
1.8325 0.5276 0.0480
1.8375 0.4255 0.0437
1.8425 0.4387 0.0446
1.8475 0.3502 0.0389
1.8525 0.4827 0.0452
1.8575 0.5148 0.0476
1.8625 0.5490 0.0495
1.8675 0.4685 0.0461
1.8725 0.4934 0.0473
1.8775 0.4958 0.0455
1.8825 0.5753 0.0497
1.8875 0.5466 0.0493
1.8925 0.6136 0.0528
1.8975 0.4955 0.0475
1.9025 0.4340 0.0438
1.9075 0.4448 0.0432
1.9125 0.4240 0.0430
1.9175 0.4482 0.0448
1.9225 0.4274 0.0441
1.9275 0.4371 0.0444
1.9325 0.3419 0.0382
1.9375 0.3725 0.0402
1.9425 0.4139 0.0427
1.9475 0.4363 0.0445
1.9525 0.3829 0.0415
1.9575 0.4405 0.0447
1.9625 0.5657 0.0489
1.9675 0.6288 0.0524
1.9725 0.6672 0.0545
1.9775 0.6458 0.0538
1.9825 0.5992 0.0520
1.9875 0.5879 0.0522
1.9925 0.5438 0.0477
1.9975 0.6207 0.0521
2.0025 0.4196 0.0433
2.0075 0.5694 0.0505
2.0125 0.4951 0.0474
2.0175 0.6135 0.0534
2.0225 0.7342 0.0552
2.0275 0.6983 0.0549
2.0325 0.7389 0.0577
2.0375 0.7710 0.0588
2.0425 0.6402 0.0543
2.0475 0.6785 0.0554
2.0525 0.4793 0.0447
2.0575 0.4602 0.0450
2.0625 0.4635 0.0456
2.0675 0.4370 0.0447
2.0725 0.3603 0.0406
2.0775 0.4028 0.0420
2.0825 0.4890 0.0456
2.0875 0.3741 0.0409
2.0925 0.3119 0.0376
2.0975 0.2741 0.0351
2.1025 0.3147 0.0379
2.1075 0.2220 0.0311
2.1125 0.3032 0.0360
2.1175 0.3343 0.0386
2.1225 0.2935 0.0364
2.1275 0.2787 0.0354
2.1325 0.3817 0.0419
2.1375 0.2846 0.0353
2.1425 0.2556 0.0331
2.1475 0.2484 0.0332
2.1525 0.3019 0.0366
2.1575 0.2748 0.0355
2.1625 0.2677 0.0349
2.1675 0.2665 0.0344
2.1725 0.2397 0.0321
2.1775 0.2410 0.0325
2.1825 0.2169 0.0313
2.1875 0.2666 0.0347
2.1925 0.2625 0.0351
2.1975 0.2375 0.0321
2.2025 0.2574 0.0332
2.2075 0.3284 0.0382
2.2125 0.2437 0.0332
2.2175 0.2985 0.0367
2.2225 0.2552 0.0341
2.2275 0.2883 0.0358
2.2325 0.3287 0.0372
2.2375 0.2676 0.0346
2.2425 0.2255 0.0319
2.2475 0.2201 0.0318
2.2525 0.2255 0.0322
2.2575 0.2678 0.0340
2.2625 0.2152 0.0305
2.2675 0.2032 0.0300
2.2725 0.2157 0.0312
2.2775 0.2825 0.0362
2.2825 0.2340 0.0325
2.2875 0.2342 0.0322
2.2925 0.2389 0.0320
2.2975 0.2926 0.0361
2.3025 0.2633 0.0346
2.3075 0.2302 0.0323
2.3125 0.2239 0.0320
2.3175 0.1920 0.0290
2.3225 0.2470 0.0326
2.3275 0.1651 0.0272
2.3325 0.2191 0.0313
2.3375 0.2128 0.0310
2.3425 0.2025 0.0305
2.3475 0.2300 0.0317
2.3525 0.2504 0.0329
2.3575 0.2022 0.0298
2.3625 0.1723 0.0280
2.3675 0.1736 0.0282
2.3725 0.1812 0.0287
2.3775 0.1867 0.0285
2.3825 0.2148 0.0304
2.3875 0.1786 0.0283
2.3925 0.1542 0.0261
2.3975 0.1600 0.0271
2.4025 0.2041 0.0308
2.4075 0.2148 0.0304
2.4125 0.2311 0.0315
2.4175 0.2203 0.0312
2.4225 0.2967 0.0366
2.4275 0.2472 0.0337
2.4325 0.2356 0.0330
2.4375 0.2205 0.0306
2.4425 0.2374 0.0321
2.4475 0.1941 0.0293
2.4525 0.2460 0.0335
2.4575 0.2491 0.0337
2.4625 0.2633 0.0349
2.4675 0.2261 0.0308
2.4725 0.1986 0.0293
2.4775 0.2701 0.0346
2.4825 0.2793 0.0358
2.4875 0.2255 0.0319
2.4925 0.2167 0.0317
2.4975 0.2574 0.0327
2.5025 0.2190 0.0307
2.5075 0.2049 0.0302
2.5125 0.2113 0.0312
2.5175 0.2334 0.0324
2.5225 0.2179 0.0318
2.5275 0.1920 0.0281
2.5325 0.2177 0.0308
2.5375 0.2021 0.0302
2.5425 0.2375 0.0330
2.5475 0.2594 0.0341
2.5525 0.2205 0.0312
2.5575 0.1935 0.0286
2.5625 0.2173 0.0311
2.5675 0.1837 0.0287
2.5725 0.2091 0.0308
2.5775 0.2038 0.0304
2.5825 0.1943 0.0288
2.5875 0.1757 0.0275
2.5925 0.1766 0.0280
2.5975 0.2170 0.0313
2.6025 0.2083 0.0308
2.6075 0.2163 0.0316
2.6125 0.1224 0.0224
2.6175 0.2005 0.0296
2.6225 0.1656 0.0272
2.6275 0.2249 0.0318
2.6325 0.1852 0.0290
2.6375 0.1815 0.0280
2.6425 0.1479 0.0250
2.6475 0.1501 0.0258
2.6525 0.1553 0.0263
2.6575 0.1605 0.0271
2.6625 0.1051 0.0220
2.6675 0.1844 0.0275
2.6725 0.1354 0.0243
2.6775 0.0965 0.0206
2.6825 0.1187 0.0233
2.6875 0.1085 0.0222
2.6925 0.1190 0.0225
2.6975 0.0938 0.0200
0.2137 0.0156 0.0092
0.2142 0.0306 0.0138
0.2147 0.0240 0.0122
0.2152 0.0375 0.0143
0.2157 0.0223 0.0113
0.2162 0.0285 0.0129
0.2167 0.0246 0.0124
0.2172 0.0213 0.0107
0.2177 0.0050 0.0052
0.2182 0.0176 0.0104
0.2188 0.0237 0.0120
0.2193 0.0268 0.0121
0.2198 0.0254 0.0114
