1.0675 -0.0004 1.0000
1.0725 0.2264 0.0569
1.0775 0.1239 0.0375
1.0825 0.0946 0.0300
1.0875 0.1875 0.0369
1.0925 0.2144 0.0386
1.0975 0.1173 0.0277
1.1025 0.1414 0.0289
1.1075 0.1853 0.0305
1.1125 0.2256 0.0345
1.1175 0.2052 0.0317
1.1225 0.1877 0.0290
1.1275 0.1809 0.0276
1.1325 0.2246 0.0312
1.1375 0.2422 0.0324
1.1425 0.3805 0.0389
1.1475 0.3521 0.0382
1.1525 0.4266 0.0427
1.1575 0.4318 0.0420
1.1625 0.2579 0.0325
1.1675 0.2622 0.0331
1.1725 0.2380 0.0318
1.1775 0.3278 0.0362
1.1825 0.3495 0.0379
1.1875 0.3386 0.0374
1.1925 0.3667 0.0393
1.1975 0.3367 0.0363
1.2025 0.3004 0.0349
1.2075 0.2517 0.0325
1.2125 0.2994 0.0355
1.2175 0.2850 0.0334
1.2225 0.2854 0.0343
1.2275 0.2779 0.0340
1.2325 0.2669 0.0339
1.2375 0.2894 0.0334
1.2425 0.4005 0.0407
1.2475 0.2666 0.0336
1.2525 0.3685 0.0391
1.2575 0.3743 0.0388
1.2625 0.4498 0.0431
1.2675 0.3468 0.0381
1.2725 0.4293 0.0421
1.2775 0.4111 0.0402
1.2825 0.3156 0.0362
1.2875 0.3435 0.0384
1.2925 0.3504 0.0381
1.2975 0.4987 0.0448
1.3025 0.8081 0.0578
1.3075 0.9154 0.0622
1.3125 0.7706 0.0571
1.3175 0.6694 0.0512
1.3225 1.3298 0.0746
1.3275 2.6360 0.1055
1.3325 3.4381 0.1217
1.3375 2.0438 0.0901
1.3425 0.9446 0.0629
1.3475 0.6839 0.0536
1.3525 0.5756 0.0494
1.3575 0.6944 0.0528
1.3625 0.8914 0.0611
1.3675 1.9504 0.0905
1.3725 2.2821 0.0996
1.3775 1.6517 0.0828
1.3825 0.9472 0.0619
1.3875 0.6535 0.0528
1.3925 0.6006 0.0508
1.3975 0.5016 0.0466
1.4025 0.5860 0.0480
1.4075 0.6899 0.0537
1.4125 0.7849 0.0582
1.4175 1.4363 0.0787
1.4225 4.6805 0.1377
1.4275 8.2086 0.1846
1.4325 5.6112 0.1555
1.4375 2.3015 0.0990
1.4425 0.8993 0.0625
1.4475 0.6762 0.0519
1.4525 0.5999 0.0505
1.4575 0.4672 0.0450
1.4625 0.5762 0.0502
1.4675 0.4605 0.0435
1.4725 0.5471 0.0476
1.4775 0.5426 0.0484
1.4825 0.5064 0.0468
1.4875 0.5283 0.0480
1.4925 0.5258 0.0461
1.4975 0.6462 0.0521
1.5025 0.6470 0.0530
1.5075 0.6868 0.0550
1.5125 0.8070 0.0581
1.5175 0.7348 0.0552
1.5225 0.8504 0.0603
1.5275 1.2907 0.0749
1.5325 2.6929 0.1089
1.5375 3.3695 0.1182
1.5425 2.4083 0.1000
1.5475 1.3751 0.0777
1.5525 0.7867 0.0581
1.5575 0.5324 0.0486
1.5625 0.6349 0.0510
1.5675 0.5437 0.0479
1.5725 0.5040 0.0468
1.5775 0.4599 0.0449
1.5825 0.5039 0.0472
1.5875 0.4929 0.0449
1.5925 0.5430 0.0484
1.5975 0.5559 0.0489
1.6025 0.6033 0.0516
1.6075 0.5435 0.0490
1.6125 0.5136 0.0456
1.6175 0.5668 0.0493
1.6225 0.5441 0.0491
1.6275 0.5591 0.0496
1.6325 0.5391 0.0488
1.6375 0.5794 0.0486
1.6425 0.6037 0.0510
1.6475 0.7201 0.0557
1.6525 0.5874 0.0513
1.6575 0.7506 0.0578
1.6625 1.0699 0.0664
1.6675 1.8830 0.0905
1.6725 2.8167 0.1111
1.6775 4.9618 0.1478
1.6825 7.4487 0.1819
1.6875 9.3006 0.1969
1.6925 8.0237 0.1848
1.6975 5.5372 0.1555
1.7025 3.7774 0.1287
1.7075 2.5139 0.1069
1.7125 1.8119 0.0878
1.7175 1.3379 0.0751
1.7225 1.1574 0.0712
1.7275 0.8578 0.0616
1.7325 0.6796 0.0553
1.7375 0.7608 0.0575
1.7425 0.6062 0.0498
1.7475 0.7167 0.0563
1.7525 0.6462 0.0535
1.7575 0.6526 0.0542
1.7625 0.5908 0.0512
1.7675 0.6887 0.0535
1.7725 0.5956 0.0509
1.7775 0.6211 0.0523
1.7825 0.5696 0.0505
1.7875 0.6269 0.0528
1.7925 0.7064 0.0553
1.7975 0.5925 0.0503
1.8025 0.5981 0.0512
1.8075 0.5920 0.0512
1.8125 0.5620 0.0501
1.8175 0.5751 0.0512
1.8225 0.5247 0.0466
1.8275 0.5496 0.0490
1.8325 0.4365 0.0437
1.8375 0.5110 0.0479
1.8425 0.4748 0.0464
1.8475 0.4889 0.0460
1.8525 0.5885 0.0499
1.8575 0.5064 0.0472
1.8625 0.5490 0.0495
1.8675 0.5186 0.0486
1.8725 0.5699 0.0508
1.8775 0.5501 0.0479
1.8825 0.6481 0.0527
1.8875 0.4577 0.0451
1.8925 0.5092 0.0481
1.8975 0.5552 0.0502
1.9025 0.3851 0.0413
1.9075 0.4113 0.0416
1.9125 0.4198 0.0428
1.9175 0.4077 0.0428
1.9225 0.3909 0.0422
1.9275 0.5048 0.0477
1.9325 0.4615 0.0444
1.9375 0.4982 0.0464
1.9425 0.4762 0.0458
1.9475 0.5320 0.0492
1.9525 0.5139 0.0481
1.9575 0.5858 0.0516
1.9625 0.5914 0.0500
1.9675 0.7336 0.0566
1.9725 0.7473 0.0576
1.9775 0.6501 0.0540
1.9825 0.6267 0.0531
1.9875 0.5976 0.0526
1.9925 0.5899 0.0497
1.9975 0.6112 0.0517
2.0025 0.5266 0.0485
2.0075 0.5692 0.0505
2.0125 0.6639 0.0549
2.0175 0.5908 0.0524
2.0225 0.7466 0.0557
2.0275 0.7546 0.0570
2.0325 0.6304 0.0533
2.0375 0.7667 0.0586
2.0425 0.6637 0.0553
2.0475 0.6153 0.0528
2.0525 0.4842 0.0449
2.0575 0.5052 0.0472
2.0625 0.4365 0.0442
2.0675 0.4336 0.0445
2.0725 0.4466 0.0452
2.0775 0.3284 0.0380
2.0825 0.3608 0.0392
2.0875 0.3875 0.0416
2.0925 0.3747 0.0412
2.0975 0.3557 0.0400
2.1025 0.2829 0.0359
2.1075 0.3182 0.0373
2.1125 0.3074 0.0362
2.1175 0.3388 0.0389
2.1225 0.2981 0.0367
2.1275 0.2924 0.0363
2.1325 0.3359 0.0393
2.1375 0.3200 0.0375
2.1425 0.2812 0.0347
2.1475 0.2886 0.0358
2.1525 0.2308 0.0320
2.1575 0.3070 0.0375
2.1625 0.2498 0.0337
2.1675 0.2796 0.0353
2.1725 0.2569 0.0332
2.1775 0.2582 0.0336
2.1825 0.3209 0.0381
2.1875 0.2892 0.0362
2.1925 0.3047 0.0378
2.1975 0.1945 0.0290
2.2025 0.3258 0.0374
2.2075 0.2621 0.0341
2.2125 0.2938 0.0365
2.2175 0.3030 0.0370
2.2225 0.2781 0.0356
2.2275 0.3023 0.0367
2.2325 0.3202 0.0368
2.2375 0.2588 0.0340
2.2425 0.2758 0.0353
2.2475 0.2520 0.0340
2.2525 0.2762 0.0357
2.2575 0.1814 0.0280
2.2625 0.2583 0.0334
2.2675 0.2208 0.0313
2.2725 0.2067 0.0305
2.2775 0.2217 0.0320
2.2825 0.2250 0.0318
2.2875 0.2161 0.0309
2.2925 0.3200 0.0370
2.2975 0.1907 0.0291
2.3025 0.1993 0.0301
2.3075 0.2350 0.0326
2.3125 0.2614 0.0345
2.3175 0.2181 0.0309
2.3225 0.2258 0.0311
2.3275 0.2054 0.0304
2.3325 0.2059 0.0304
2.3375 0.2846 0.0359
2.3425 0.2066 0.0309
2.3475 0.1782 0.0279
2.3525 0.1942 0.0290
2.3575 0.2327 0.0320
2.3625 0.1947 0.0298
2.3675 0.1739 0.0282
2.3725 0.1586 0.0269
2.3775 0.2514 0.0331
2.3825 0.1632 0.0265
2.3875 0.1699 0.0276
2.3925 0.1541 0.0261
2.3975 0.1965 0.0300
2.4025 0.1994 0.0305
2.4075 0.2194 0.0308
2.4125 0.2181 0.0306
2.4175 0.2648 0.0342
2.4225 0.2109 0.0308
2.4275 0.2239 0.0320
2.4325 0.2076 0.0310
2.4375 0.2164 0.0303
2.4425 0.2589 0.0335
2.4475 0.1764 0.0279
2.4525 0.2095 0.0309
2.4575 0.2356 0.0327
2.4625 0.3047 0.0376
2.4675 0.2768 0.0341
2.4725 0.2980 0.0359
2.4775 0.2168 0.0310
2.4825 0.2974 0.0369
2.4875 0.2118 0.0310
2.4925 0.1707 0.0281
2.4975 0.2453 0.0320
2.5025 0.1805 0.0279
2.5075 0.2494 0.0334
2.5125 0.1699 0.0280
2.5175 0.2831 0.0357
2.5225 0.1993 0.0304
2.5275 0.2863 0.0343
2.5325 0.3003 0.0362
2.5375 0.2245 0.0318
2.5425 0.2196 0.0317
2.5475 0.2056 0.0304
2.5525 0.2426 0.0328
2.5575 0.2483 0.0324
2.5625 0.2085 0.0304
2.5675 0.1926 0.0294
2.5725 0.1452 0.0257
2.5775 0.2489 0.0336
2.5825 0.2661 0.0336
2.5875 0.2437 0.0323
2.5925 0.2218 0.0314
2.5975 0.1984 0.0300
2.6025 0.2445 0.0333
2.6075 0.1195 0.0235
2.6125 0.1839 0.0275
2.6175 0.1438 0.0251
2.6225 0.1926 0.0294
2.6275 0.1888 0.0292
2.6325 0.1854 0.0290
2.6375 0.1773 0.0277
2.6425 0.1692 0.0268
2.6475 0.1280 0.0238
2.6525 0.1465 0.0255
2.6575 0.1467 0.0259
2.6625 0.1466 0.0259
2.6675 0.1310 0.0232
2.6725 0.1484 0.0255
2.6775 0.1409 0.0249
2.6825 0.1140 0.0228
2.6875 0.1354 0.0248
2.6925 0.1275 0.0233
2.6975 0.1539 0.0256
0.2137 0.0156 0.0092
0.2142 0.0306 0.0138
0.2147 0.0240 0.0122
0.2152 0.0375 0.0143
0.2157 0.0223 0.0113
0.2162 0.0285 0.0129
0.2167 0.0246 0.0124
0.2172 0.0213 0.0107
0.2177 0.0050 0.0052
0.2182 0.0176 0.0104
0.2188 0.0237 0.0120
0.2193 0.0268 0.0121
0.2198 0.0254 0.0114
