1.0675 0.7451 0.4316
1.0725 0.9348 0.1156
1.0775 0.6111 0.0833
1.0825 0.7219 0.0829
1.0875 0.5855 0.0651
1.0925 0.7695 0.0731
1.0975 0.6068 0.0630
1.1025 0.7446 0.0664
1.1075 0.6023 0.0550
1.1125 0.7039 0.0609
1.1175 0.7732 0.0616
1.1225 0.7073 0.0563
1.1275 0.8306 0.0592
1.1325 0.8172 0.0595
1.1375 0.7708 0.0578
1.1425 0.7812 0.0557
1.1475 0.7133 0.0544
1.1525 0.7092 0.0551
1.1575 0.8844 0.0601
1.1625 0.8067 0.0575
1.1675 0.8699 0.0602
1.1725 0.9275 0.0628
1.1775 0.9932 0.0630
1.1825 0.8644 0.0596
1.1875 1.0372 0.0655
1.1925 0.9152 0.0621
1.1975 0.9369 0.0606
1.2025 0.9796 0.0631
1.2075 1.0293 0.0658
1.2125 1.0537 0.0667
1.2175 1.2378 0.0695
1.2225 1.0328 0.0653
1.2275 1.2237 0.0713
1.2325 1.2118 0.0723
1.2375 1.1083 0.0654
1.2425 1.3633 0.0751
1.2475 1.2533 0.0729
1.2525 1.1976 0.0705
1.2575 1.3378 0.0734
1.2625 1.2423 0.0716
1.2675 1.1462 0.0693
1.2725 1.3092 0.0736
1.2775 1.3410 0.0725
1.2825 1.5735 0.0808
1.2875 1.3497 0.0761
1.2925 1.4688 0.0779
1.2975 1.5717 0.0794
1.3025 1.5095 0.0790
1.3075 1.4590 0.0785
1.3125 1.5729 0.0816
1.3175 1.5565 0.0781
1.3225 1.6353 0.0827
1.3275 1.5333 0.0804
1.3325 1.5725 0.0823
1.3375 1.7068 0.0823
1.3425 1.8737 0.0885
1.3475 1.7086 0.0847
1.3525 1.7575 0.0863
1.3575 1.9155 0.0877
1.3625 1.6875 0.0840
1.3675 1.7401 0.0855
1.3725 1.9169 0.0913
1.3775 2.0461 0.0921
1.3825 1.8176 0.0858
1.3875 1.8336 0.0885
1.3925 1.9577 0.0917
1.3975 2.0638 0.0945
1.4025 2.0235 0.0893
1.4075 1.9862 0.0912
1.4125 2.0392 0.0938
1.4175 2.0101 0.0931
1.4225 1.9030 0.0878
1.4275 1.9467 0.0899
1.4325 2.0042 0.0929
1.4375 2.0118 0.0925
1.4425 2.2344 0.0986
1.4475 2.0307 0.0899
1.4525 2.0162 0.0926
1.4575 1.9566 0.0920
1.4625 1.8644 0.0902
1.4675 2.0546 0.0920
1.4725 1.8960 0.0887
1.4775 1.9964 0.0928
1.4825 1.9452 0.0918
1.4875 1.9485 0.0922
1.4925 1.7939 0.0852
1.4975 1.9453 0.0904
1.5025 1.8130 0.0888
1.5075 1.9376 0.0924
1.5125 1.8526 0.0880
1.5175 1.9177 0.0892
1.5225 1.8365 0.0886
1.5275 1.6479 0.0846
1.5325 1.7934 0.0889
1.5375 1.6287 0.0822
1.5425 1.6040 0.0816
1.5475 1.6099 0.0840
1.5525 1.4321 0.0784
1.5575 1.6974 0.0869
1.5625 1.4466 0.0770
1.5675 1.5772 0.0816
1.5725 1.4808 0.0802
1.5775 1.4774 0.0805
1.5825 1.5300 0.0823
1.5875 1.5448 0.0794
1.5925 1.3311 0.0757
1.5975 1.4391 0.0788
1.6025 1.3873 0.0782
1.6075 1.3577 0.0775
1.6125 1.3926 0.0751
1.6175 1.3349 0.0757
1.6225 1.4694 0.0806
1.6275 1.4931 0.0811
1.6325 1.2305 0.0738
1.6375 1.4164 0.0760
1.6425 1.1418 0.0702
1.6475 1.1772 0.0712
1.6525 1.0673 0.0692
1.6575 1.1961 0.0729
1.6625 1.1525 0.0689
1.6675 1.2652 0.0742
1.6725 1.1006 0.0695
1.6775 1.1939 0.0725
1.6825 1.1463 0.0714
1.6875 1.0869 0.0673
1.6925 1.0301 0.0662
1.6975 1.1397 0.0705
1.7025 1.0263 0.0671
1.7075 1.0825 0.0701
1.7125 1.0329 0.0663
1.7175 1.0633 0.0670
1.7225 0.9302 0.0639
1.7275 1.0263 0.0674
1.7325 0.9585 0.0657
1.7375 0.9349 0.0638
1.7425 0.8030 0.0574
1.7475 0.9286 0.0641
1.7525 0.8761 0.0623
1.7575 0.7695 0.0589
1.7625 0.8127 0.0601
1.7675 0.9169 0.0617
1.7725 0.8997 0.0625
1.7775 0.8503 0.0612
1.7825 0.9016 0.0636
1.7875 0.8581 0.0618
1.7925 0.7989 0.0588
1.7975 0.7411 0.0563
1.8025 0.8733 0.0619
1.8075 0.7598 0.0580
1.8125 0.7976 0.0597
1.8175 0.7626 0.0590
1.8225 0.8343 0.0587
1.8275 0.7670 0.0579
1.8325 0.7164 0.0559
1.8375 0.7345 0.0574
1.8425 0.8596 0.0624
1.8475 0.6917 0.0547
1.8525 0.6738 0.0534
1.8575 0.6831 0.0549
1.8625 0.8401 0.0612
1.8675 0.6953 0.0562
1.8725 0.7785 0.0594
1.8775 0.6879 0.0535
1.8825 0.7512 0.0568
1.8875 0.6134 0.0522
1.8925 0.6821 0.0557
1.8975 0.6820 0.0557
1.9025 0.7129 0.0562
1.9075 0.6593 0.0526
1.9125 0.6251 0.0522
1.9175 0.7218 0.0569
1.9225 0.6498 0.0543
1.9275 0.6308 0.0533
1.9325 0.7271 0.0557
1.9375 0.7101 0.0554
1.9425 0.5994 0.0514
1.9475 0.4458 0.0450
1.9525 0.6224 0.0529
1.9575 0.5951 0.0520
1.9625 0.6505 0.0524
1.9675 0.6470 0.0532
1.9725 0.5918 0.0513
1.9775 0.5111 0.0479
1.9825 0.5542 0.0500
1.9875 0.4997 0.0481
1.9925 0.5399 0.0475
1.9975 0.5197 0.0476
2.0025 0.5267 0.0485
2.0075 0.5648 0.0503
2.0125 0.4631 0.0459
2.0175 0.4793 0.0472
2.0225 0.5019 0.0456
2.0275 0.4656 0.0448
2.0325 0.4816 0.0466
2.0375 0.5245 0.0485
2.0425 0.4654 0.0463
2.0475 0.4207 0.0436
2.0525 0.4874 0.0451
2.0575 0.5182 0.0478
2.0625 0.4407 0.0445
2.0675 0.4281 0.0442
2.0725 0.4505 0.0454
2.0775 0.4285 0.0434
2.0825 0.4757 0.0450
2.0875 0.4765 0.0461
2.0925 0.5284 0.0489
2.0975 0.4679 0.0459
2.1025 0.4245 0.0440
2.1075 0.4191 0.0428
2.1125 0.3926 0.0410
2.1175 0.4192 0.0433
2.1225 0.3481 0.0397
2.1275 0.4137 0.0432
2.1325 0.4461 0.0453
2.1375 0.4162 0.0427
2.1425 0.3841 0.0405
2.1475 0.3686 0.0405
2.1525 0.4709 0.0457
2.1575 0.3759 0.0415
2.1625 0.3993 0.0426
2.1675 0.4398 0.0442
2.1725 0.4197 0.0424
2.1775 0.3989 0.0418
2.1825 0.3300 0.0386
2.1875 0.3838 0.0417
2.1925 0.3424 0.0401
2.1975 0.3632 0.0397
2.2025 0.4247 0.0427
2.2075 0.4089 0.0426
2.2125 0.4610 0.0457
2.2175 0.3348 0.0389
2.2225 0.3927 0.0423
2.2275 0.3373 0.0387
2.2325 0.3879 0.0405
2.2375 0.3522 0.0397
2.2425 0.2981 0.0367
2.2475 0.3577 0.0405
2.2525 0.3589 0.0407
2.2575 0.3070 0.0365
2.2625 0.3316 0.0378
2.2675 0.2871 0.0356
2.2725 0.3824 0.0415
2.2775 0.3418 0.0398
2.2825 0.3466 0.0395
2.2875 0.2825 0.0354
2.2925 0.2519 0.0328
2.2975 0.3328 0.0385
2.3025 0.2811 0.0357
2.3075 0.3209 0.0381
2.3125 0.3382 0.0393
2.3175 0.3014 0.0364
2.3225 0.3755 0.0401
2.3275 0.3294 0.0384
2.3325 0.2769 0.0352
2.3375 0.3029 0.0370
2.3425 0.3493 0.0401
2.3475 0.3310 0.0380
2.3525 0.3369 0.0382
2.3575 0.2812 0.0352
2.3625 0.2492 0.0337
2.3675 0.3112 0.0378
2.3725 0.2904 0.0363
2.3775 0.3338 0.0381
2.3825 0.3226 0.0373
2.3875 0.2909 0.0361
2.3925 0.3310 0.0383
2.3975 0.2564 0.0343
2.4025 0.3391 0.0397
2.4075 0.2924 0.0355
2.4125 0.2610 0.0335
2.4175 0.2251 0.0316
2.4225 0.3777 0.0412
2.4275 0.3619 0.0407
2.4325 0.3048 0.0376
2.4375 0.3780 0.0401
2.4425 0.2502 0.0329
2.4475 0.3312 0.0383
2.4525 0.2916 0.0365
2.4575 0.2719 0.0352
2.4625 0.2496 0.0340
2.4675 0.2854 0.0346
2.4725 0.2287 0.0315
2.4775 0.3368 0.0387
2.4825 0.3249 0.0386
2.4875 0.2436 0.0332
2.4925 0.2124 0.0314
2.4975 0.2201 0.0303
2.5025 0.2709 0.0342
2.5075 0.2451 0.0331
2.5125 0.3220 0.0385
2.5175 0.3285 0.0385
2.5225 0.3243 0.0388
2.5275 0.2575 0.0325
2.5325 0.2744 0.0346
2.5375 0.2427 0.0331
2.5425 0.2196 0.0317
2.5475 0.2502 0.0335
2.5525 0.2600 0.0339
2.5575 0.2524 0.0326
2.5625 0.2352 0.0323
2.5675 0.3007 0.0367
2.5725 0.3325 0.0389
2.5775 0.2580 0.0342
2.5825 0.2411 0.0320
2.5875 0.3032 0.0361
2.5925 0.2791 0.0352
2.5975 0.2537 0.0339
2.6025 0.1947 0.0297
2.6075 0.2162 0.0316
2.6125 0.1966 0.0284
2.6175 0.1833 0.0283
2.6225 0.2151 0.0311
2.6275 0.1888 0.0292
2.6325 0.2441 0.0332
2.6375 0.2032 0.0297
2.6425 0.2247 0.0309
2.6475 0.2078 0.0303
2.6525 0.1553 0.0263
2.6575 0.2157 0.0315
2.6625 0.2155 0.0314
2.6675 0.2009 0.0287
2.6725 0.1791 0.0280
2.6775 0.1982 0.0296
2.6825 0.1370 0.0250
2.6875 0.1492 0.0260
2.6925 0.1189 0.0225
2.6975 0.1149 0.0222
0.2137 0.0156 0.0092
0.2142 0.0306 0.0138
0.2147 0.0240 0.0122
0.2152 0.0375 0.0143
0.2157 0.0223 0.0113
0.2162 0.0285 0.0129
0.2167 0.0246 0.0124
0.2172 0.0213 0.0107
0.2177 0.0050 0.0052
0.2182 0.0176 0.0104
0.2188 0.0237 0.0120
0.2193 0.0268 0.0121
0.2198 0.0254 0.0114
