1.0675 0.7385 0.4297
1.0725 0.6793 0.0985
1.0775 0.5095 0.0761
1.0825 0.6839 0.0807
1.0875 0.6358 0.0679
1.0925 0.5336 0.0609
1.0975 0.7433 0.0697
1.1025 0.7155 0.0651
1.1075 0.7129 0.0599
1.1125 0.7090 0.0611
1.1175 0.6664 0.0572
1.1225 0.8013 0.0599
1.1275 0.7504 0.0563
1.1325 0.7653 0.0576
1.1375 0.7793 0.0581
1.1425 0.8091 0.0567
1.1475 0.8747 0.0602
1.1525 0.8710 0.0610
1.1575 0.8240 0.0580
1.1625 0.9057 0.0609
1.1675 0.8332 0.0589
1.1725 0.9865 0.0648
1.1775 0.9487 0.0616
1.1825 0.9340 0.0620
1.1875 1.0661 0.0664
1.1925 1.0588 0.0668
1.1975 1.0587 0.0644
1.2025 1.0567 0.0655
1.2075 1.1634 0.0699
1.2125 1.0371 0.0662
1.2175 1.0232 0.0632
1.2225 1.0621 0.0662
1.2275 1.1451 0.0689
1.2325 1.2021 0.0720
1.2375 1.2972 0.0708
1.2425 1.1728 0.0696
1.2475 1.2193 0.0719
1.2525 1.2687 0.0726
1.2575 1.3372 0.0734
1.2625 1.3210 0.0739
1.2675 1.3512 0.0752
1.2725 1.3542 0.0748
1.2775 1.4543 0.0755
1.2825 1.4619 0.0779
1.2875 1.5768 0.0823
1.2925 1.5097 0.0790
1.2975 1.4391 0.0760
1.3025 1.4988 0.0787
1.3075 1.6100 0.0824
1.3125 1.5639 0.0814
1.3175 1.5789 0.0787
1.3225 1.5764 0.0812
1.3275 1.5942 0.0820
1.3325 1.4773 0.0798
1.3375 1.5647 0.0788
1.3425 1.6648 0.0835
1.3475 1.7011 0.0845
1.3525 1.7024 0.0849
1.3575 1.9433 0.0883
1.3625 2.0560 0.0927
1.3675 1.8114 0.0872
1.3725 1.8087 0.0887
1.3775 1.7517 0.0853
1.3825 1.8258 0.0860
1.3875 2.1887 0.0967
1.3925 2.0145 0.0930
1.3975 1.9731 0.0924
1.4025 1.9447 0.0875
1.4075 1.8950 0.0890
1.4125 1.8145 0.0884
1.4175 2.0271 0.0935
1.4225 1.9277 0.0883
1.4275 2.0462 0.0921
1.4325 2.1338 0.0959
1.4375 2.0549 0.0935
1.4425 2.1000 0.0956
1.4475 1.9383 0.0879
1.4525 1.9648 0.0914
1.4575 2.0300 0.0937
1.4625 1.9778 0.0929
1.4675 1.8643 0.0876
1.4725 1.9166 0.0892
1.4775 1.9274 0.0911
1.4825 1.7500 0.0870
1.4875 1.8123 0.0890
1.4925 2.0294 0.0906
1.4975 1.8821 0.0889
1.5025 1.9601 0.0923
1.5075 1.6822 0.0861
1.5125 1.8028 0.0868
1.5175 1.7100 0.0842
1.5225 1.9140 0.0904
1.5275 1.6254 0.0841
1.5325 1.8255 0.0897
1.5375 1.5119 0.0792
1.5425 1.5502 0.0802
1.5475 1.4761 0.0805
1.5525 1.5516 0.0816
1.5575 1.5951 0.0842
1.5625 1.6587 0.0825
1.5675 1.5482 0.0808
1.5725 1.4858 0.0804
1.5775 1.4817 0.0806
1.5825 1.5165 0.0819
1.5875 1.4474 0.0769
1.5925 1.4171 0.0782
1.5975 1.3141 0.0753
1.6025 1.3084 0.0759
1.6075 1.3715 0.0779
1.6125 1.3563 0.0741
1.6175 1.2578 0.0735
1.6225 1.3006 0.0759
1.6275 1.1675 0.0717
1.6325 1.2124 0.0732
1.6375 1.2287 0.0708
1.6425 1.2293 0.0728
1.6475 1.2207 0.0725
1.6525 1.2557 0.0750
1.6575 1.2001 0.0730
1.6625 1.2261 0.0710
1.6675 1.1689 0.0713
1.6725 1.1274 0.0703
1.6775 1.1942 0.0725
1.6825 0.9645 0.0655
1.6875 1.1041 0.0678
1.6925 1.1107 0.0687
1.6975 1.1046 0.0695
1.7025 1.0614 0.0682
1.7075 1.0677 0.0697
1.7125 1.0460 0.0667
1.7175 0.9365 0.0629
1.7225 0.9949 0.0661
1.7275 1.0000 0.0665
1.7325 0.9497 0.0654
1.7375 1.0261 0.0668
1.7425 1.0935 0.0669
1.7475 0.9555 0.0650
1.7525 0.7694 0.0583
1.7575 0.9094 0.0640
1.7625 1.0755 0.0691
1.7675 0.7965 0.0575
1.7725 0.9344 0.0637
1.7775 0.9117 0.0634
1.7825 0.8250 0.0608
1.7875 0.7646 0.0583
1.7925 0.7880 0.0584
1.7975 0.8315 0.0596
1.8025 0.7599 0.0577
1.8075 0.6981 0.0556
1.8125 0.7176 0.0566
1.8175 0.8772 0.0633
1.8225 0.7560 0.0559
1.8275 0.7281 0.0564
1.8325 0.6986 0.0552
1.8375 0.8336 0.0611
1.8425 0.7917 0.0599
1.8475 0.6407 0.0527
1.8525 0.6653 0.0531
1.8575 0.6696 0.0543
1.8625 0.7726 0.0587
1.8675 0.7915 0.0600
1.8725 0.6603 0.0547
1.8775 0.6840 0.0534
1.8825 0.6523 0.0529
1.8875 0.7606 0.0581
1.8925 0.7725 0.0593
1.8975 0.6875 0.0559
1.9025 0.7129 0.0562
1.9075 0.6135 0.0508
1.9125 0.5942 0.0509
1.9175 0.7263 0.0571
1.9225 0.5502 0.0500
1.9275 0.6670 0.0548
1.9325 0.6028 0.0508
1.9375 0.6102 0.0514
1.9425 0.6038 0.0516
1.9475 0.5231 0.0488
1.9525 0.5182 0.0483
1.9575 0.5908 0.0518
1.9625 0.5488 0.0481
1.9675 0.4980 0.0466
1.9725 0.6009 0.0517
1.9775 0.5022 0.0475
1.9825 0.5633 0.0504
1.9875 0.5509 0.0505
1.9925 0.5349 0.0473
1.9975 0.4669 0.0452
2.0025 0.5624 0.0501
2.0075 0.5203 0.0483
2.0125 0.5859 0.0516
2.0175 0.5348 0.0499
2.0225 0.5265 0.0467
2.0275 0.5301 0.0478
2.0325 0.5177 0.0483
2.0375 0.5600 0.0501
2.0425 0.4142 0.0437
2.0475 0.4753 0.0464
2.0525 0.4671 0.0441
2.0575 0.5046 0.0471
2.0625 0.3829 0.0414
2.0675 0.3688 0.0410
2.0725 0.4282 0.0442
2.0775 0.3893 0.0413
2.0825 0.4760 0.0450
2.0875 0.4721 0.0459
2.0925 0.3885 0.0419
2.0975 0.5038 0.0476
2.1025 0.3788 0.0416
2.1075 0.4622 0.0449
2.1125 0.4736 0.0450
2.1175 0.3919 0.0418
2.1225 0.4115 0.0431
2.1275 0.4455 0.0448
2.1325 0.4003 0.0429
2.1375 0.3327 0.0382
2.1425 0.4223 0.0425
2.1475 0.4439 0.0444
2.1525 0.4262 0.0435
2.1575 0.3528 0.0402
2.1625 0.4632 0.0459
2.1675 0.4173 0.0431
2.1725 0.4027 0.0416
2.1775 0.3856 0.0411
2.1825 0.3887 0.0419
2.1875 0.3615 0.0404
2.1925 0.3568 0.0409
2.1975 0.3762 0.0404
2.2025 0.3002 0.0359
2.2075 0.3692 0.0405
2.2125 0.4382 0.0445
2.2175 0.3164 0.0378
2.2225 0.4197 0.0438
2.2275 0.4131 0.0428
2.2325 0.4596 0.0440
2.2375 0.3125 0.0373
2.2425 0.3978 0.0424
2.2475 0.3390 0.0394
2.2525 0.2897 0.0365
2.2575 0.3549 0.0392
2.2625 0.3705 0.0400
2.2675 0.3402 0.0388
2.2725 0.3239 0.0382
2.2775 0.3559 0.0406
2.2825 0.3422 0.0393
2.2875 0.3005 0.0365
2.2925 0.4226 0.0425
2.2975 0.3105 0.0372
2.3025 0.3223 0.0383
2.3075 0.3572 0.0402
2.3125 0.2425 0.0333
2.3175 0.3231 0.0376
2.3225 0.2433 0.0323
2.3275 0.3800 0.0413
2.3325 0.2412 0.0329
2.3375 0.2887 0.0361
2.3425 0.2851 0.0362
2.3475 0.2785 0.0349
2.3525 0.2978 0.0359
2.3575 0.3343 0.0384
2.3625 0.3360 0.0391
2.3675 0.2700 0.0352
2.3725 0.3085 0.0374
2.3775 0.3558 0.0393
2.3825 0.3269 0.0375
2.3875 0.3488 0.0396
2.3925 0.2956 0.0362
2.3975 0.2517 0.0340
2.4025 0.3435 0.0400
2.4075 0.2794 0.0347
2.4125 0.2827 0.0348
2.4175 0.2387 0.0325
2.4225 0.3237 0.0382
2.4275 0.2885 0.0364
2.4325 0.3279 0.0390
2.4375 0.2504 0.0326
2.4425 0.3627 0.0396
2.4475 0.2339 0.0322
2.4525 0.2548 0.0341
2.4575 0.2266 0.0321
2.4625 0.2912 0.0367
2.4675 0.2179 0.0303
2.4725 0.3460 0.0387
2.4775 0.3415 0.0390
2.4825 0.2516 0.0340
2.4875 0.2708 0.0350
2.4925 0.2169 0.0317
2.4975 0.2907 0.0348
2.5025 0.2750 0.0344
2.5075 0.3163 0.0376
2.5125 0.2759 0.0357
2.5175 0.2561 0.0340
2.5225 0.2920 0.0369
2.5275 0.3064 0.0354
2.5325 0.2793 0.0349
2.5375 0.2786 0.0354
2.5425 0.3067 0.0375
2.5475 0.2907 0.0361
2.5525 0.2735 0.0348
2.5575 0.2780 0.0343
2.5625 0.2305 0.0320
2.5675 0.2465 0.0332
2.5725 0.2914 0.0364
2.5775 0.3125 0.0377
2.5825 0.3125 0.0365
2.5875 0.2732 0.0342
2.5925 0.2386 0.0326
2.5975 0.2122 0.0310
2.6025 0.2444 0.0333
2.6075 0.2532 0.0342
2.6125 0.2211 0.0301
2.6175 0.1830 0.0283
2.6225 0.2106 0.0307
2.6275 0.2071 0.0305
2.6325 0.2033 0.0303
2.6375 0.2249 0.0312
2.6425 0.1904 0.0284
2.6475 0.1859 0.0287
2.6525 0.1865 0.0288
2.6575 0.1880 0.0294
2.6625 0.1604 0.0271
2.6675 0.1636 0.0259
2.6725 0.1529 0.0258
2.6775 0.1983 0.0296
2.6825 0.1690 0.0278
2.6875 0.1582 0.0268
2.6925 0.2169 0.0304
2.6975 0.1323 0.0238
0.2137 0.0156 0.0092
0.2142 0.0306 0.0138
0.2147 0.0240 0.0122
0.2152 0.0375 0.0143
0.2157 0.0223 0.0113
0.2162 0.0285 0.0129
0.2167 0.0246 0.0124
0.2172 0.0213 0.0107
0.2177 0.0050 0.0052
0.2182 0.0176 0.0104
0.2188 0.0237 0.0120
0.2193 0.0268 0.0121
0.2198 0.0254 0.0114
