1.0675 1.2386 0.5565
1.0725 0.9332 0.1155
1.0775 0.8603 0.0989
1.0825 0.8359 0.0892
1.0875 0.8523 0.0786
1.0925 0.9701 0.0821
1.0975 0.7372 0.0694
1.1025 0.8513 0.0710
1.1075 1.0593 0.0730
1.1125 1.1411 0.0775
1.1175 1.0534 0.0719
1.1225 1.0616 0.0690
1.1275 1.0415 0.0663
1.1325 1.0075 0.0660
1.1375 1.0698 0.0681
1.1425 1.1426 0.0673
1.1475 1.1155 0.0680
1.1525 1.0039 0.0655
1.1575 1.1947 0.0698
1.1625 1.0409 0.0653
1.1675 1.2076 0.0709
1.1725 1.1366 0.0695
1.1775 1.1329 0.0673
1.1825 1.1847 0.0698
1.1875 1.1823 0.0699
1.1925 1.1982 0.0711
1.1975 1.1884 0.0683
1.2025 1.1580 0.0686
1.2075 1.3775 0.0761
1.2125 1.3317 0.0750
1.2175 1.2230 0.0691
1.2225 1.4256 0.0768
1.2275 1.3982 0.0762
1.2325 1.4183 0.0782
1.2375 1.4633 0.0752
1.2425 1.3504 0.0747
1.2475 1.4440 0.0782
1.2525 1.4639 0.0779
1.2575 1.3699 0.0743
1.2625 1.5315 0.0796
1.2675 1.4641 0.0783
1.2725 1.5274 0.0794
1.2775 1.5011 0.0767
1.2825 1.5822 0.0810
1.2875 1.4653 0.0793
1.2925 1.6835 0.0834
1.2975 1.7165 0.0830
1.3025 1.5080 0.0789
1.3075 1.5479 0.0808
1.3125 1.6988 0.0848
1.3175 1.7912 0.0838
1.3225 1.6939 0.0842
1.3275 1.6012 0.0822
1.3325 1.5634 0.0821
1.3375 1.7795 0.0840
1.3425 1.7307 0.0851
1.3475 1.7087 0.0847
1.3525 1.7368 0.0858
1.3575 1.6097 0.0804
1.3625 1.7464 0.0855
1.3675 1.8989 0.0893
1.3725 1.9521 0.0921
1.3775 1.8175 0.0868
1.3825 1.9548 0.0890
1.3875 1.7691 0.0869
1.3925 1.6748 0.0848
1.3975 1.9124 0.0910
1.4025 1.8341 0.0850
1.4075 1.9243 0.0897
1.4125 1.8236 0.0887
1.4175 1.8539 0.0894
1.4225 1.8915 0.0875
1.4275 1.7880 0.0861
1.4325 1.8791 0.0900
1.4375 1.7616 0.0866
1.4425 1.7559 0.0874
1.4475 1.7864 0.0844
1.4525 1.7815 0.0871
1.4575 1.8700 0.0900
1.4625 1.7461 0.0873
1.4675 1.6628 0.0827
1.4725 1.8251 0.0870
1.4775 1.7254 0.0862
1.4825 1.6974 0.0857
1.4875 1.6683 0.0854
1.4925 1.5512 0.0792
1.4975 1.6172 0.0824
1.5025 1.7211 0.0865
1.5075 1.6114 0.0843
1.5125 1.6275 0.0825
1.5175 1.7350 0.0848
1.5225 1.5770 0.0821
1.5275 1.5161 0.0812
1.5325 1.5116 0.0816
1.5375 1.5732 0.0808
1.5425 1.5540 0.0803
1.5475 1.5100 0.0814
1.5525 1.4739 0.0795
1.5575 1.4171 0.0794
1.5625 1.4666 0.0775
1.5675 1.4628 0.0786
1.5725 1.4334 0.0789
1.5775 1.5996 0.0838
1.5825 1.3339 0.0768
1.5875 1.4434 0.0768
1.5925 1.3043 0.0750
1.5975 1.2586 0.0737
1.6025 1.3081 0.0759
1.6075 1.2609 0.0747
1.6125 1.4129 0.0756
1.6175 1.3175 0.0752
1.6225 1.3359 0.0769
1.6275 1.2945 0.0755
1.6325 1.2168 0.0734
1.6375 1.1876 0.0696
1.6425 1.1815 0.0714
1.6475 1.1253 0.0696
1.6525 1.1702 0.0724
1.6575 1.0222 0.0674
1.6625 1.1521 0.0689
1.6675 1.0956 0.0690
1.6725 1.1409 0.0707
1.6775 1.1411 0.0709
1.6825 0.9639 0.0655
1.6875 0.9704 0.0636
1.6925 1.1580 0.0702
1.6975 1.0870 0.0689
1.7025 1.1006 0.0695
1.7075 1.1364 0.0719
1.7125 1.1571 0.0702
1.7175 1.0968 0.0680
1.7225 1.0258 0.0671
1.7275 0.9912 0.0662
1.7325 1.0164 0.0677
1.7375 0.9908 0.0656
1.7425 0.9956 0.0639
1.7475 0.8717 0.0621
1.7525 0.9954 0.0664
1.7575 0.9728 0.0662
1.7625 0.9376 0.0646
1.7675 0.9914 0.0641
1.7725 0.8041 0.0591
1.7775 0.8195 0.0601
1.7825 0.8072 0.0602
1.7875 0.9651 0.0655
1.7925 0.7758 0.0580
1.7975 0.7632 0.0571
1.8025 0.7384 0.0569
1.8075 0.7822 0.0588
1.8125 0.7537 0.0580
1.8175 0.7857 0.0599
1.8225 0.8388 0.0589
1.8275 0.8247 0.0600
1.8325 0.7901 0.0587
1.8375 0.6721 0.0549
1.8425 0.7190 0.0570
1.8475 0.8306 0.0600
1.8525 0.8347 0.0595
1.8575 0.7046 0.0557
1.8625 0.6966 0.0558
1.8675 0.6585 0.0547
1.8725 0.6919 0.0560
1.8775 0.6668 0.0527
1.8825 0.6309 0.0520
1.8875 0.6178 0.0524
1.8925 0.6722 0.0553
1.8975 0.6960 0.0562
1.9025 0.6952 0.0555
1.9075 0.6464 0.0521
1.9125 0.7122 0.0558
1.9175 0.6184 0.0527
1.9225 0.6775 0.0555
1.9275 0.6761 0.0552
1.9325 0.6419 0.0524
1.9375 0.6760 0.0541
1.9425 0.6877 0.0550
1.9475 0.6091 0.0526
1.9525 0.6761 0.0552
1.9575 0.7047 0.0566
1.9625 0.5781 0.0494
1.9675 0.6030 0.0513
1.9725 0.5960 0.0515
1.9775 0.6011 0.0519
1.9825 0.5317 0.0489
1.9875 0.6489 0.0548
1.9925 0.5732 0.0490
1.9975 0.5022 0.0468
2.0025 0.5450 0.0493
2.0075 0.5425 0.0493
2.0125 0.5456 0.0498
2.0175 0.4786 0.0472
2.0225 0.5849 0.0493
2.0275 0.5606 0.0492
2.0325 0.5897 0.0515
2.0375 0.4524 0.0450
2.0425 0.5576 0.0507
2.0475 0.4614 0.0457
2.0525 0.5130 0.0462
2.0575 0.6098 0.0518
2.0625 0.5217 0.0484
2.0675 0.5376 0.0495
2.0725 0.4832 0.0470
2.0775 0.4381 0.0438
2.0825 0.4415 0.0433
2.0875 0.5517 0.0496
2.0925 0.4562 0.0454
2.0975 0.4453 0.0448
2.1025 0.5297 0.0492
2.1075 0.4536 0.0445
2.1125 0.5293 0.0476
2.1175 0.5352 0.0489
2.1225 0.4293 0.0441
2.1275 0.4679 0.0459
2.1325 0.4462 0.0453
2.1375 0.4554 0.0447
2.1425 0.3754 0.0401
2.1475 0.4217 0.0433
2.1525 0.4171 0.0431
2.1575 0.4625 0.0461
2.1625 0.4042 0.0429
2.1675 0.4751 0.0459
2.1725 0.3899 0.0409
2.1775 0.5525 0.0492
2.1825 0.3842 0.0417
2.1875 0.3795 0.0414
2.1925 0.3986 0.0433
2.1975 0.4539 0.0443
2.2025 0.3859 0.0407
2.2075 0.4714 0.0458
2.2125 0.4433 0.0448
2.2175 0.4657 0.0459
2.2225 0.4335 0.0445
2.2275 0.3909 0.0417
2.2325 0.4049 0.0413
2.2375 0.4727 0.0459
2.2425 0.3521 0.0399
2.2475 0.4082 0.0433
2.2525 0.4606 0.0461
2.2575 0.4625 0.0447
2.2625 0.4047 0.0418
2.2675 0.3449 0.0391
2.2725 0.3823 0.0415
2.2775 0.3887 0.0424
2.2825 0.3919 0.0420
2.2875 0.4509 0.0447
2.2925 0.3801 0.0403
2.2975 0.4347 0.0440
2.3025 0.3859 0.0419
2.3075 0.3213 0.0381
2.3125 0.3797 0.0416
2.3175 0.3452 0.0389
2.3225 0.3544 0.0390
2.3275 0.4196 0.0434
2.3325 0.3403 0.0391
2.3375 0.3703 0.0409
2.3425 0.3581 0.0406
2.3475 0.3179 0.0373
2.3525 0.3584 0.0394
2.3575 0.3210 0.0376
2.3625 0.4222 0.0438
2.3675 0.4071 0.0432
2.3725 0.4171 0.0435
2.3775 0.3861 0.0410
2.3825 0.3397 0.0383
2.3875 0.2639 0.0344
2.3925 0.3483 0.0393
2.3975 0.3802 0.0418
2.4025 0.3014 0.0374
2.4075 0.4259 0.0428
2.4125 0.3683 0.0398
2.4175 0.3002 0.0364
2.4225 0.3865 0.0417
2.4275 0.3435 0.0397
2.4325 0.4107 0.0436
2.4375 0.3187 0.0368
2.4425 0.3758 0.0403
2.4475 0.4235 0.0433
2.4525 0.3918 0.0423
2.4575 0.3355 0.0391
2.4625 0.3650 0.0411
2.4675 0.3142 0.0363
2.4725 0.3457 0.0387
2.4775 0.3456 0.0392
2.4825 0.2881 0.0364
2.4875 0.4152 0.0433
2.4925 0.2955 0.0370
2.4975 0.3450 0.0379
2.5025 0.2791 0.0347
2.5075 0.3701 0.0406
2.5125 0.3402 0.0396
2.5175 0.2201 0.0315
2.5225 0.3899 0.0426
2.5275 0.3109 0.0357
2.5325 0.2659 0.0341
2.5375 0.4230 0.0437
2.5425 0.4164 0.0437
2.5475 0.3176 0.0377
2.5525 0.3440 0.0390
2.5575 0.3071 0.0360
2.5625 0.3018 0.0366
2.5675 0.3137 0.0375
2.5725 0.2867 0.0361
2.5775 0.3173 0.0380
2.5825 0.3169 0.0367
2.5875 0.2898 0.0353
2.5925 0.4524 0.0448
2.5975 0.2803 0.0356
2.6025 0.2039 0.0304
2.6075 0.2803 0.0359
2.6125 0.2989 0.0350
2.6175 0.2445 0.0327
2.6225 0.2732 0.0350
2.6275 0.2611 0.0343
2.6325 0.2623 0.0345
2.6375 0.2812 0.0349
2.6425 0.2921 0.0352
2.6475 0.2875 0.0357
2.6525 0.3021 0.0366
2.6575 0.3351 0.0392
2.6625 0.3073 0.0375
2.6675 0.2993 0.0350
2.6725 0.2446 0.0327
2.6775 0.2732 0.0347
2.6825 0.3379 0.0393
2.6875 0.2308 0.0323
2.6925 0.2082 0.0298
2.6975 0.2136 0.0302
0.2137 0.0156 0.0092
0.2142 0.0306 0.0138
0.2147 0.0240 0.0122
0.2152 0.0375 0.0143
0.2157 0.0223 0.0113
0.2162 0.0285 0.0129
0.2167 0.0246 0.0124
0.2172 0.0213 0.0107
0.2177 0.0050 0.0052
0.2182 0.0176 0.0104
0.2188 0.0237 0.0120
0.2193 0.0268 0.0121
0.2198 0.0254 0.0114
