1.0675 -0.0004 1.0000
1.0725 0.0848 0.0348
1.0775 0.1809 0.0453
1.0825 0.1801 0.0414
1.0875 0.1515 0.0331
1.0925 0.1381 0.0310
1.0975 0.1494 0.0313
1.1025 0.1652 0.0313
1.1075 0.1048 0.0230
1.1125 0.2048 0.0328
1.1175 0.1905 0.0306
1.1225 0.1563 0.0265
1.1275 0.2064 0.0295
1.1325 0.2114 0.0303
1.1375 0.1904 0.0287
1.1425 0.2414 0.0310
1.1475 0.2817 0.0342
1.1525 0.4356 0.0431
1.1575 0.4976 0.0451
1.1625 0.3479 0.0378
1.1675 0.2203 0.0303
1.1725 0.2934 0.0353
1.1775 0.2359 0.0307
1.1825 0.2880 0.0344
1.1875 0.2519 0.0323
1.1925 0.4175 0.0420
1.1975 0.3567 0.0374
1.2025 0.3366 0.0370
1.2075 0.2686 0.0336
1.2125 0.2569 0.0329
1.2175 0.2378 0.0305
1.2225 0.2725 0.0336
1.2275 0.1780 0.0272
1.2325 0.2496 0.0328
1.2375 0.3008 0.0341
1.2425 0.2144 0.0298
1.2475 0.2837 0.0347
1.2525 0.2402 0.0316
1.2575 0.2816 0.0337
1.2625 0.3093 0.0358
1.2675 0.3721 0.0395
1.2725 0.4251 0.0419
1.2775 0.4271 0.0409
1.2825 0.3276 0.0369
1.2875 0.3823 0.0405
1.2925 0.3915 0.0402
1.2975 0.3476 0.0374
1.3025 0.6641 0.0524
1.3075 0.9014 0.0617
1.3125 0.8558 0.0602
1.3175 0.6698 0.0513
1.3225 0.8361 0.0591
1.3275 1.6574 0.0836
1.3325 2.7922 0.1097
1.3375 2.9886 0.1089
1.3425 1.3705 0.0757
1.3475 0.7263 0.0552
1.3525 0.6984 0.0544
1.3575 0.6462 0.0509
1.3625 0.6359 0.0516
1.3675 1.2272 0.0718
1.3725 2.1783 0.0973
1.3775 2.2371 0.0963
1.3825 1.3928 0.0751
1.3875 0.7130 0.0552
1.3925 0.6742 0.0538
1.3975 0.5749 0.0499
1.4025 0.4998 0.0444
1.4075 0.5431 0.0477
1.4125 0.6677 0.0536
1.4175 0.9312 0.0634
1.4225 2.3205 0.0969
1.4275 6.5985 0.1655
1.4325 7.3600 0.1781
1.4375 4.0071 0.1306
1.4425 1.4300 0.0788
1.4475 0.7366 0.0542
1.4525 0.6249 0.0516
1.4575 0.5672 0.0496
1.4625 0.5193 0.0476
1.4675 0.5306 0.0467
1.4725 0.4894 0.0451
1.4775 0.4567 0.0444
1.4825 0.5585 0.0492
1.4875 0.4668 0.0451
1.4925 0.5790 0.0484
1.4975 0.6088 0.0506
1.5025 0.6423 0.0528
1.5075 0.6515 0.0536
1.5125 0.6481 0.0521
1.5175 0.6468 0.0518
1.5225 0.8332 0.0597
1.5275 0.9946 0.0658
1.5325 1.5070 0.0815
1.5375 2.8751 0.1092
1.5425 3.1980 0.1152
1.5475 1.8353 0.0897
1.5525 0.9725 0.0646
1.5575 0.6129 0.0522
1.5625 0.4876 0.0447
1.5675 0.5732 0.0492
1.5725 0.5127 0.0472
1.5775 0.5602 0.0496
1.5825 0.4734 0.0458
1.5875 0.4890 0.0447
1.5925 0.4131 0.0422
1.5975 0.4391 0.0435
1.6025 0.5546 0.0494
1.6075 0.6061 0.0518
1.6125 0.5465 0.0470
1.6175 0.5188 0.0472
1.6225 0.5396 0.0489
1.6275 0.5144 0.0476
1.6325 0.4817 0.0462
1.6375 0.6043 0.0497
1.6425 0.5514 0.0488
1.6475 0.4954 0.0462
1.6525 0.5824 0.0511
1.6575 0.4844 0.0464
1.6625 0.6665 0.0524
1.6675 0.8782 0.0618
1.6725 1.3678 0.0775
1.6775 2.1279 0.0968
1.6825 4.1562 0.1359
1.6875 6.5907 0.1657
1.6925 8.4074 0.1891
1.6975 8.4542 0.1921
1.7025 6.2579 0.1657
1.7075 4.4065 0.1415
1.7125 2.8541 0.1102
1.7175 2.0767 0.0936
1.7225 1.4163 0.0788
1.7275 1.2254 0.0736
1.7325 0.8550 0.0621
1.7375 0.7566 0.0574
1.7425 0.7291 0.0547
1.7475 0.6323 0.0529
1.7525 0.7080 0.0560
1.7575 0.7246 0.0571
1.7625 0.5685 0.0503
1.7675 0.6307 0.0512
1.7725 0.6562 0.0534
1.7775 0.6208 0.0523
1.7825 0.5647 0.0503
1.7875 0.6043 0.0518
1.7925 0.6333 0.0524
1.7975 0.5626 0.0490
1.8025 0.5285 0.0481
1.8075 0.5698 0.0502
1.8125 0.5573 0.0499
1.8175 0.4790 0.0468
1.8225 0.5576 0.0480
1.8275 0.4401 0.0438
1.8325 0.4892 0.0462
1.8375 0.4524 0.0450
1.8425 0.4157 0.0434
1.8475 0.4632 0.0448
1.8525 0.4660 0.0444
1.8575 0.4670 0.0454
1.8625 0.5181 0.0481
1.8675 0.5727 0.0510
1.8725 0.6196 0.0529
1.8775 0.5794 0.0491
1.8825 0.5710 0.0495
1.8875 0.4665 0.0455
1.8925 0.4726 0.0463
1.8975 0.5088 0.0481
1.9025 0.3761 0.0408
1.9075 0.3737 0.0396
1.9125 0.4589 0.0448
1.9175 0.4838 0.0466
1.9225 0.5047 0.0479
1.9275 0.3965 0.0423
1.9325 0.3890 0.0408
1.9375 0.4631 0.0448
1.9425 0.4537 0.0447
1.9475 0.4958 0.0475
1.9525 0.4146 0.0432
1.9575 0.4817 0.0468
1.9625 0.4977 0.0458
1.9675 0.5635 0.0496
1.9725 0.6133 0.0522
1.9775 0.6639 0.0546
1.9825 0.7032 0.0563
1.9875 0.5877 0.0522
1.9925 0.4890 0.0452
1.9975 0.4062 0.0421
2.0025 0.4866 0.0466
2.0075 0.5516 0.0497
2.0125 0.4998 0.0477
2.0175 0.5913 0.0524
2.0225 0.6760 0.0530
2.0275 0.6207 0.0517
2.0325 0.7431 0.0579
2.0375 0.7846 0.0593
2.0425 0.7187 0.0576
2.0475 0.6882 0.0558
2.0525 0.5172 0.0464
2.0575 0.4696 0.0455
2.0625 0.4324 0.0440
2.0675 0.4142 0.0435
2.0725 0.4011 0.0428
2.0775 0.3848 0.0411
2.0825 0.4294 0.0427
2.0875 0.3254 0.0381
2.0925 0.3024 0.0370
2.0975 0.3460 0.0395
2.1025 0.3195 0.0382
2.1075 0.3571 0.0395
2.1125 0.2857 0.0349
2.1175 0.2982 0.0365
2.1225 0.2529 0.0338
2.1275 0.2696 0.0349
2.1325 0.2761 0.0357
2.1375 0.2712 0.0345
2.1425 0.2299 0.0313
2.1475 0.2083 0.0304
2.1525 0.3152 0.0374
2.1575 0.2335 0.0327
2.1625 0.2451 0.0334
2.1675 0.2840 0.0355
2.1725 0.2699 0.0340
2.1775 0.3152 0.0372
2.1825 0.2484 0.0335
2.1875 0.3029 0.0370
2.1925 0.2063 0.0311
2.1975 0.2332 0.0318
2.2025 0.2871 0.0351
2.2075 0.2264 0.0317
2.2125 0.3210 0.0381
2.2175 0.2803 0.0356
2.2225 0.2510 0.0339
2.2275 0.1996 0.0298
2.2325 0.3117 0.0363
2.2375 0.2678 0.0346
2.2425 0.2443 0.0332
2.2475 0.2063 0.0308
2.2525 0.2716 0.0354
2.2575 0.1944 0.0290
2.2625 0.2150 0.0304
2.2675 0.2872 0.0356
2.2725 0.2515 0.0337
2.2775 0.2080 0.0310
2.2825 0.2249 0.0318
2.2875 0.2515 0.0334
2.2925 0.2476 0.0325
2.2975 0.2658 0.0344
2.3025 0.2132 0.0311
2.3075 0.2670 0.0348
2.3125 0.2652 0.0348
2.3175 0.2616 0.0339
2.3225 0.1962 0.0290
2.3275 0.1737 0.0279
2.3325 0.2858 0.0358
2.3375 0.2029 0.0303
2.3425 0.1973 0.0302
2.3475 0.1999 0.0295
2.3525 0.1899 0.0287
2.3575 0.2106 0.0305
2.3625 0.1630 0.0272
2.3675 0.1922 0.0297
2.3725 0.2224 0.0318
2.3775 0.1907 0.0288
2.3825 0.1805 0.0279
2.3875 0.2323 0.0323
2.3925 0.2337 0.0322
2.3975 0.1783 0.0286
2.4025 0.1810 0.0290
2.4075 0.2107 0.0301
2.4125 0.1754 0.0274
2.4175 0.1456 0.0254
2.4225 0.2110 0.0308
2.4275 0.2564 0.0343
2.4325 0.2399 0.0333
2.4375 0.2333 0.0315
2.4425 0.2418 0.0324
2.4475 0.2427 0.0328
2.4525 0.2502 0.0338
2.4575 0.2493 0.0337
2.4625 0.2956 0.0370
2.4675 0.2390 0.0317
2.4725 0.2420 0.0324
2.4775 0.2170 0.0311
2.4825 0.2610 0.0346
2.4875 0.2074 0.0306
2.4925 0.2261 0.0324
2.4975 0.1828 0.0276
2.5025 0.2364 0.0319
2.5075 0.2094 0.0306
2.5125 0.2432 0.0335
2.5175 0.2111 0.0308
2.5225 0.2595 0.0347
2.5275 0.2534 0.0322
2.5325 0.2046 0.0299
2.5375 0.1574 0.0266
2.5425 0.2285 0.0324
2.5475 0.2550 0.0338
2.5525 0.2249 0.0315
2.5575 0.2276 0.0310
2.5625 0.1863 0.0288
2.5675 0.1970 0.0297
2.5725 0.2229 0.0318
2.5775 0.1629 0.0272
2.5825 0.1558 0.0258
2.5875 0.2131 0.0302
2.5925 0.1503 0.0258
2.5975 0.2301 0.0323
2.6025 0.2220 0.0318
2.6075 0.2117 0.0312
2.6125 0.1964 0.0284
2.6175 0.1702 0.0273
2.6225 0.1746 0.0280
2.6275 0.1303 0.0242
2.6325 0.1311 0.0244
2.6375 0.1509 0.0256
2.6425 0.1863 0.0281
2.6475 0.2075 0.0303
2.6525 0.1777 0.0281
2.6575 0.1374 0.0251
2.6625 0.1236 0.0238
2.6675 0.1308 0.0232
2.6725 0.1308 0.0239
2.6775 0.1585 0.0264
2.6825 0.1504 0.0262
2.6875 0.1447 0.0256
2.6925 0.1191 0.0225
2.6975 0.1194 0.0226
0.2137 0.0156 0.0092
0.2142 0.0306 0.0138
0.2147 0.0240 0.0122
0.2152 0.0375 0.0143
0.2157 0.0223 0.0113
0.2162 0.0285 0.0129
0.2167 0.0246 0.0124
0.2172 0.0213 0.0107
0.2177 0.0050 0.0052
0.2182 0.0176 0.0104
0.2188 0.0237 0.0120
0.2193 0.0268 0.0121
0.2198 0.0254 0.0114
