1.0675 0.4978 0.3528
1.0725 0.7656 0.1046
1.0775 0.6904 0.0886
1.0825 0.5602 0.0730
1.0875 0.5707 0.0643
1.0925 0.7216 0.0708
1.0975 0.7369 0.0694
1.1025 0.6445 0.0618
1.1075 0.6830 0.0586
1.1125 0.7524 0.0629
1.1175 0.7781 0.0618
1.1225 0.7835 0.0593
1.1275 0.7504 0.0563
1.1325 0.6619 0.0535
1.1375 0.7747 0.0579
1.1425 0.7214 0.0535
1.1475 0.7504 0.0558
1.1525 0.7726 0.0575
1.1575 0.8285 0.0582
1.1625 0.8236 0.0581
1.1675 0.8662 0.0601
1.1725 0.9789 0.0645
1.1775 0.8722 0.0591
1.1825 0.9800 0.0635
1.1875 0.8263 0.0584
1.1925 0.9159 0.0622
1.1975 1.0153 0.0631
1.2025 0.9548 0.0623
1.2075 0.9241 0.0623
1.2125 0.9106 0.0620
1.2175 1.1518 0.0671
1.2225 1.0424 0.0656
1.2275 1.1324 0.0685
1.2325 1.0431 0.0671
1.2375 1.0736 0.0644
1.2425 1.3171 0.0738
1.2475 1.1343 0.0693
1.2525 1.1981 0.0705
1.2575 1.2973 0.0723
1.2625 1.2964 0.0732
1.2675 1.2715 0.0729
1.2725 1.3384 0.0744
1.2775 1.3871 0.0738
1.2825 1.4239 0.0769
1.2875 1.3717 0.0767
1.2925 1.4444 0.0773
1.2975 1.5396 0.0786
1.3025 1.3520 0.0747
1.3075 1.3839 0.0764
1.3125 1.5036 0.0798
1.3175 1.6661 0.0808
1.3225 1.5725 0.0811
1.3275 1.6526 0.0835
1.3325 1.6744 0.0850
1.3375 1.5888 0.0794
1.3425 1.7305 0.0851
1.3475 1.6620 0.0836
1.3525 1.6522 0.0837
1.3575 1.7141 0.0830
1.3625 1.8336 0.0876
1.3675 1.7655 0.0861
1.3725 1.8475 0.0896
1.3775 1.8590 0.0878
1.3825 1.9872 0.0897
1.3875 1.8807 0.0897
1.3925 1.6491 0.0841
1.3975 2.0246 0.0936
1.4025 1.8970 0.0864
1.4075 2.1964 0.0959
1.4125 2.0774 0.0946
1.4175 2.1395 0.0960
1.4225 1.9974 0.0899
1.4275 1.9421 0.0898
1.4325 1.9958 0.0927
1.4375 2.0422 0.0932
1.4425 2.0348 0.0941
1.4475 2.0935 0.0913
1.4525 2.0756 0.0940
1.4575 1.9050 0.0908
1.4625 1.9038 0.0912
1.4675 1.9555 0.0897
1.4725 2.1864 0.0952
1.4775 1.9495 0.0917
1.4825 1.9670 0.0923
1.4875 2.0710 0.0951
1.4925 2.0011 0.0900
1.4975 1.8989 0.0893
1.5025 1.9214 0.0914
1.5075 1.8629 0.0906
1.5125 1.6732 0.0837
1.5175 1.8676 0.0880
1.5225 1.9440 0.0911
1.5275 1.9391 0.0918
1.5325 1.6920 0.0863
1.5375 1.7689 0.0857
1.5425 1.6902 0.0837
1.5475 1.5929 0.0836
1.5525 1.6337 0.0837
1.5575 1.7188 0.0874
1.5625 1.5767 0.0804
1.5675 1.6052 0.0823
1.5725 1.7071 0.0862
1.5775 1.4470 0.0797
1.5825 1.5525 0.0829
1.5875 1.7540 0.0846
1.5925 1.5599 0.0820
1.5975 1.3873 0.0773
1.6025 1.4361 0.0795
1.6075 1.3448 0.0771
1.6125 1.4324 0.0762
1.6175 1.5919 0.0827
1.6225 1.3138 0.0762
1.6275 1.4048 0.0787
1.6325 1.4069 0.0789
1.6375 1.2325 0.0709
1.6425 1.4528 0.0791
1.6475 1.2767 0.0742
1.6525 1.1981 0.0733
1.6575 1.0980 0.0699
1.6625 1.2963 0.0730
1.6675 1.1872 0.0718
1.6725 1.1622 0.0714
1.6775 1.2164 0.0732
1.6825 1.0526 0.0684
1.6875 1.1456 0.0691
1.6925 1.0943 0.0682
1.6975 1.1135 0.0697
1.7025 1.0527 0.0679
1.7075 1.1176 0.0713
1.7125 1.0379 0.0665
1.7175 0.9293 0.0626
1.7225 1.0913 0.0692
1.7275 0.9826 0.0659
1.7325 1.0756 0.0696
1.7375 0.8606 0.0612
1.7425 0.9546 0.0625
1.7475 0.8355 0.0608
1.7525 1.0577 0.0684
1.7575 0.9140 0.0642
1.7625 0.9818 0.0661
1.7675 0.8838 0.0606
1.7725 0.8605 0.0612
1.7775 0.7800 0.0586
1.7825 0.9289 0.0645
1.7875 0.8315 0.0608
1.7925 0.8927 0.0622
1.7975 0.9004 0.0620
1.8025 0.7952 0.0591
1.8075 0.9725 0.0656
1.8125 0.7723 0.0587
1.8175 0.8768 0.0633
1.8225 0.7725 0.0565
1.8275 0.6846 0.0547
1.8325 0.7503 0.0572
1.8375 0.8058 0.0601
1.8425 0.7326 0.0576
1.8475 0.8653 0.0612
1.8525 0.6653 0.0531
1.8575 0.6911 0.0552
1.8625 0.7501 0.0579
1.8675 0.7049 0.0566
1.8725 0.7470 0.0581
1.8775 0.6835 0.0534
1.8825 0.6962 0.0547
1.8875 0.6892 0.0553
1.8925 0.6683 0.0551
1.8975 0.6365 0.0538
1.9025 0.7001 0.0557
1.9075 0.5756 0.0492
1.9125 0.6473 0.0532
1.9175 0.6723 0.0549
1.9225 0.6322 0.0536
1.9275 0.6446 0.0539
1.9325 0.6029 0.0508
1.9375 0.6366 0.0525
1.9425 0.6569 0.0538
1.9475 0.6051 0.0524
1.9525 0.5225 0.0485
1.9575 0.5224 0.0487
1.9625 0.6083 0.0507
1.9675 0.5546 0.0492
1.9725 0.5913 0.0513
1.9775 0.5651 0.0503
1.9825 0.6040 0.0522
1.9875 0.6296 0.0540
1.9925 0.4558 0.0437
1.9975 0.4583 0.0447
2.0025 0.4910 0.0468
2.0075 0.5782 0.0509
2.0125 0.4677 0.0461
2.0175 0.5348 0.0499
2.0225 0.5017 0.0456
2.0275 0.4911 0.0460
2.0325 0.5765 0.0510
2.0375 0.5201 0.0483
2.0425 0.4974 0.0479
2.0475 0.4931 0.0472
2.0525 0.4758 0.0445
2.0575 0.5003 0.0469
2.0625 0.4496 0.0449
2.0675 0.5599 0.0506
2.0725 0.4933 0.0475
2.0775 0.5081 0.0472
2.0825 0.3953 0.0410
2.0875 0.3522 0.0397
2.0925 0.4071 0.0429
2.0975 0.4181 0.0434
2.1025 0.4200 0.0438
2.1075 0.3573 0.0395
2.1125 0.3839 0.0405
2.1175 0.4057 0.0426
2.1225 0.4118 0.0432
2.1275 0.3688 0.0408
2.1325 0.4977 0.0479
2.1375 0.4076 0.0423
2.1425 0.3710 0.0398
2.1475 0.4616 0.0453
2.1525 0.4083 0.0426
2.1575 0.3708 0.0412
2.1625 0.3540 0.0401
2.1675 0.4575 0.0451
2.1725 0.3345 0.0379
2.1775 0.3463 0.0390
2.1825 0.4384 0.0445
2.1875 0.4065 0.0429
2.1925 0.3661 0.0415
2.1975 0.4672 0.0450
2.2025 0.3904 0.0409
2.2075 0.3062 0.0369
2.2125 0.3839 0.0417
2.2175 0.3571 0.0402
2.2225 0.2964 0.0368
2.2275 0.4314 0.0438
2.2325 0.4210 0.0421
2.2375 0.3882 0.0416
2.2425 0.3479 0.0397
2.2475 0.3899 0.0423
2.2525 0.2997 0.0372
2.2575 0.3545 0.0392
2.2625 0.3274 0.0376
2.2675 0.3539 0.0396
2.2725 0.3958 0.0422
2.2775 0.4207 0.0441
2.2825 0.2838 0.0358
2.2875 0.3711 0.0405
2.2925 0.3030 0.0360
2.2975 0.3463 0.0392
2.3025 0.2767 0.0355
2.3075 0.3303 0.0387
2.3125 0.2697 0.0351
2.3175 0.3275 0.0379
2.3225 0.3239 0.0373
2.3275 0.3170 0.0377
2.3325 0.3942 0.0420
2.3375 0.2617 0.0344
2.3425 0.3400 0.0396
2.3475 0.2523 0.0332
2.3525 0.2674 0.0340
2.3575 0.2948 0.0360
2.3625 0.2766 0.0355
2.3675 0.3205 0.0383
2.3725 0.2767 0.0355
2.3775 0.2775 0.0347
2.3825 0.3053 0.0363
2.3875 0.2814 0.0355
2.3925 0.2780 0.0351
2.3975 0.2563 0.0343
2.4025 0.3248 0.0389
2.4075 0.3229 0.0373
2.4125 0.2779 0.0345
2.4175 0.3137 0.0373
2.4225 0.3459 0.0395
2.4275 0.3066 0.0375
2.4325 0.3190 0.0384
2.4375 0.2846 0.0348
2.4425 0.2503 0.0329
2.4475 0.2556 0.0336
2.4525 0.2825 0.0359
2.4575 0.2812 0.0358
2.4625 0.2866 0.0364
2.4675 0.3017 0.0356
2.4725 0.2978 0.0359
2.4775 0.2795 0.0352
2.4825 0.2697 0.0352
2.4875 0.2662 0.0347
2.4925 0.2862 0.0364
2.4975 0.2657 0.0333
2.5025 0.2751 0.0344
2.5075 0.3118 0.0373
2.5125 0.2342 0.0329
2.5175 0.2874 0.0360
2.5225 0.2594 0.0347
2.5275 0.3230 0.0364
2.5325 0.2528 0.0332
2.5375 0.2379 0.0327
2.5425 0.2565 0.0343
2.5475 0.2908 0.0361
2.5525 0.2248 0.0315
2.5575 0.2399 0.0318
2.5625 0.2574 0.0338
2.5675 0.2418 0.0329
2.5725 0.2683 0.0349
2.5775 0.2446 0.0333
2.5825 0.2411 0.0320
2.5875 0.2607 0.0335
2.5925 0.2081 0.0304
2.5975 0.2255 0.0319
2.6025 0.1992 0.0301
2.6075 0.2395 0.0332
2.6125 0.1886 0.0278
2.6175 0.2660 0.0341
2.6225 0.2327 0.0323
2.6275 0.2429 0.0331
2.6325 0.1895 0.0293
2.6375 0.1815 0.0280
2.6425 0.1818 0.0278
2.6475 0.2168 0.0310
2.6525 0.1599 0.0267
2.6575 0.1925 0.0297
2.6625 0.1924 0.0297
2.6675 0.1719 0.0265
2.6725 0.1704 0.0273
2.6775 0.1939 0.0292
2.6825 0.1871 0.0292
2.6875 0.1399 0.0252
2.6925 0.1402 0.0244
2.6975 0.1109 0.0218
0.2137 0.0156 0.0092
0.2142 0.0306 0.0138
0.2147 0.0240 0.0122
0.2152 0.0375 0.0143
0.2157 0.0223 0.0113
0.2162 0.0285 0.0129
0.2167 0.0246 0.0124
0.2172 0.0213 0.0107
0.2177 0.0050 0.0052
0.2182 0.0176 0.0104
0.2188 0.0237 0.0120
0.2193 0.0268 0.0121
0.2198 0.0254 0.0114
