1.0675 0.7416 0.4306
1.0725 0.9922 0.1191
1.0775 0.8709 0.0995
1.0825 0.5614 0.0731
1.0875 0.9756 0.0841
1.0925 0.8460 0.0766
1.0975 0.9260 0.0778
1.1025 0.8927 0.0727
1.1075 0.9688 0.0698
1.1125 1.0256 0.0735
1.1175 0.9988 0.0700
1.1225 0.9178 0.0642
1.1275 1.0034 0.0651
1.1325 0.9038 0.0625
1.1375 0.9782 0.0651
1.1425 0.9877 0.0626
1.1475 1.0577 0.0662
1.1525 1.2343 0.0726
1.1575 1.1951 0.0698
1.1625 1.1226 0.0678
1.1675 1.2246 0.0714
1.1725 1.1747 0.0707
1.1775 1.1048 0.0665
1.1825 1.0990 0.0672
1.1875 1.1733 0.0696
1.1925 1.3629 0.0758
1.1975 1.3687 0.0733
1.2025 1.2965 0.0726
1.2075 1.2776 0.0733
1.2125 1.3414 0.0752
1.2175 1.2649 0.0703
1.2225 1.3760 0.0754
1.2275 1.3732 0.0755
1.2325 1.4573 0.0793
1.2375 1.4902 0.0759
1.2425 1.4037 0.0762
1.2475 1.5544 0.0812
1.2525 1.3432 0.0747
1.2575 1.5111 0.0781
1.2625 1.4894 0.0785
1.2675 1.4555 0.0780
1.2725 1.6726 0.0831
1.2775 1.4111 0.0744
1.2825 1.5690 0.0807
1.2875 1.5863 0.0825
1.2925 1.5504 0.0800
1.2975 1.5354 0.0785
1.3025 1.7083 0.0840
1.3075 1.5806 0.0817
1.3125 1.6261 0.0830
1.3175 1.6351 0.0801
1.3225 1.6933 0.0842
1.3275 1.5757 0.0815
1.3325 1.6542 0.0844
1.3375 1.6644 0.0813
1.3425 1.7982 0.0867
1.3475 1.9068 0.0895
1.3525 1.8346 0.0882
1.3575 1.6982 0.0826
1.3625 1.7878 0.0865
1.3675 1.8695 0.0886
1.3725 1.8343 0.0893
1.3775 2.0422 0.0921
1.3825 1.7326 0.0838
1.3875 1.8080 0.0879
1.3925 1.7868 0.0876
1.3975 1.8085 0.0885
1.4025 1.8072 0.0843
1.4075 1.9497 0.0903
1.4125 1.7411 0.0866
1.4175 1.8330 0.0889
1.4225 1.7862 0.0850
1.4275 1.9289 0.0895
1.4325 1.7411 0.0866
1.4375 1.6628 0.0841
1.4425 1.6604 0.0850
1.4475 1.8190 0.0851
1.4525 1.7904 0.0873
1.4575 1.8100 0.0885
1.4625 1.7164 0.0866
1.4675 1.8729 0.0878
1.4725 1.7552 0.0853
1.4775 1.7157 0.0860
1.4825 1.8407 0.0893
1.4875 1.7688 0.0879
1.4925 1.8313 0.0861
1.4975 1.8518 0.0882
1.5025 1.6692 0.0852
1.5075 1.5372 0.0823
1.5125 1.5599 0.0808
1.5175 1.6017 0.0815
1.5225 1.5421 0.0812
1.5275 1.4215 0.0786
1.5325 1.5466 0.0825
1.5375 1.4690 0.0781
1.5425 1.6338 0.0823
1.5475 1.5985 0.0837
1.5525 1.5978 0.0828
1.5575 1.4476 0.0802
1.5625 1.6275 0.0817
1.5675 1.3332 0.0750
1.5725 1.3159 0.0756
1.5775 1.3634 0.0773
1.5825 1.3406 0.0770
1.5875 1.2280 0.0708
1.5925 1.4559 0.0792
1.5975 1.3357 0.0759
1.6025 1.4090 0.0788
1.6075 1.3400 0.0770
1.6125 1.1943 0.0695
1.6175 1.2317 0.0727
1.6225 1.2744 0.0751
1.6275 1.3164 0.0762
1.6325 1.2878 0.0755
1.6375 1.3020 0.0729
1.6425 1.2591 0.0737
1.6475 1.2459 0.0733
1.6525 1.0985 0.0702
1.6575 1.1604 0.0718
1.6625 1.2265 0.0710
1.6675 1.1652 0.0712
1.6725 1.2286 0.0734
1.6775 1.0357 0.0675
1.6825 1.0662 0.0688
1.6875 1.0874 0.0673
1.6925 0.9792 0.0646
1.6975 1.0819 0.0687
1.7025 1.1621 0.0714
1.7075 0.9544 0.0659
1.7125 1.1228 0.0691
1.7175 0.9449 0.0631
1.7225 1.0831 0.0689
1.7275 1.0656 0.0687
1.7325 0.9537 0.0655
1.7375 0.9299 0.0636
1.7425 0.9174 0.0613
1.7475 0.8798 0.0624
1.7525 0.9955 0.0664
1.7575 0.8507 0.0619
1.7625 0.9203 0.0640
1.7675 0.8381 0.0590
1.7725 0.9348 0.0638
1.7775 0.9297 0.0640
1.7825 0.8298 0.0610
1.7875 0.7159 0.0564
1.7925 0.7419 0.0567
1.7975 0.9005 0.0620
1.8025 0.8725 0.0619
1.8075 0.8351 0.0608
1.8125 0.7668 0.0585
1.8175 0.8352 0.0618
1.8225 0.8468 0.0592
1.8275 0.7633 0.0577
1.8325 0.7639 0.0578
1.8375 0.7660 0.0586
1.8425 0.7379 0.0578
1.8475 0.7050 0.0552
1.8525 0.7964 0.0581
1.8575 0.7354 0.0569
1.8625 0.6743 0.0549
1.8675 0.6868 0.0559
1.8725 0.7558 0.0585
1.8775 0.7878 0.0573
1.8825 0.7386 0.0563
1.8875 0.6711 0.0546
1.8925 0.7594 0.0588
1.8975 0.6595 0.0548
1.9025 0.7525 0.0577
1.9075 0.6978 0.0541
1.9125 0.5545 0.0492
1.9175 0.6548 0.0542
1.9225 0.6678 0.0551
1.9275 0.6311 0.0533
1.9325 0.6375 0.0522
1.9375 0.7492 0.0569
1.9425 0.6211 0.0523
1.9475 0.6503 0.0544
1.9525 0.5588 0.0502
1.9575 0.5864 0.0516
1.9625 0.5611 0.0487
1.9675 0.5764 0.0502
1.9725 0.6313 0.0530
1.9775 0.6416 0.0536
1.9825 0.5812 0.0512
1.9875 0.5651 0.0511
1.9925 0.5606 0.0484
1.9975 0.6949 0.0551
2.0025 0.5983 0.0517
2.0075 0.5248 0.0485
2.0125 0.6000 0.0522
2.0175 0.6460 0.0548
2.0225 0.6676 0.0526
2.0275 0.4871 0.0458
2.0325 0.5133 0.0481
2.0375 0.5424 0.0493
2.0425 0.5253 0.0492
2.0475 0.4886 0.0470
2.0525 0.5214 0.0466
2.0575 0.5172 0.0477
2.0625 0.5486 0.0496
2.0675 0.5143 0.0485
2.0725 0.5422 0.0498
2.0775 0.5514 0.0492
2.0825 0.4800 0.0452
2.0875 0.4586 0.0452
2.0925 0.4610 0.0457
2.0975 0.4497 0.0450
2.1025 0.5749 0.0512
2.1075 0.4180 0.0427
2.1125 0.5288 0.0475
2.1175 0.5308 0.0487
2.1225 0.5157 0.0483
2.1275 0.4001 0.0425
2.1325 0.4874 0.0474
2.1375 0.5212 0.0478
2.1425 0.4907 0.0458
2.1475 0.4620 0.0453
2.1525 0.5504 0.0495
2.1575 0.4216 0.0440
2.1625 0.5266 0.0489
2.1675 0.5284 0.0485
2.1725 0.4671 0.0448
2.1775 0.4291 0.0434
2.1825 0.4429 0.0448
2.1875 0.4656 0.0459
2.1925 0.5259 0.0497
2.1975 0.5235 0.0476
2.2025 0.4031 0.0416
2.2075 0.5557 0.0497
2.2125 0.4521 0.0452
2.2175 0.4115 0.0432
2.2225 0.4471 0.0452
2.2275 0.3954 0.0419
2.2325 0.4470 0.0434
2.2375 0.3660 0.0404
2.2425 0.4067 0.0429
2.2475 0.4266 0.0442
2.2525 0.4051 0.0432
2.2575 0.4241 0.0428
2.2625 0.4008 0.0416
2.2675 0.3624 0.0400
2.2725 0.3825 0.0415
2.2775 0.3977 0.0429
2.2825 0.4232 0.0437
2.2875 0.4240 0.0433
2.2925 0.4186 0.0423
2.2975 0.3464 0.0392
2.3025 0.4172 0.0435
2.3075 0.3119 0.0376
2.3125 0.3479 0.0399
2.3175 0.3977 0.0418
2.3225 0.4608 0.0445
2.3275 0.3382 0.0389
2.3325 0.3798 0.0413
2.3375 0.3844 0.0417
2.3425 0.3538 0.0404
2.3475 0.3922 0.0414
2.3525 0.3370 0.0382
2.3575 0.3827 0.0411
2.3625 0.3631 0.0406
2.3675 0.3618 0.0407
2.3725 0.3492 0.0398
2.3775 0.3253 0.0376
2.3825 0.3314 0.0378
2.3875 0.3668 0.0406
2.3925 0.3928 0.0417
2.3975 0.3483 0.0400
2.4025 0.3621 0.0410
2.4075 0.4041 0.0417
2.4125 0.3725 0.0400
2.4175 0.3581 0.0398
2.4225 0.3235 0.0382
2.4275 0.4212 0.0440
2.4325 0.3230 0.0387
2.4375 0.4159 0.0421
2.4425 0.3975 0.0415
2.4475 0.4286 0.0436
2.4525 0.3461 0.0398
2.4575 0.4080 0.0431
2.4625 0.4068 0.0434
2.4675 0.2808 0.0344
2.4725 0.3327 0.0379
2.4775 0.3545 0.0397
2.4825 0.3297 0.0389
2.4875 0.3388 0.0392
2.4925 0.3603 0.0408
2.4975 0.3951 0.0406
2.5025 0.3657 0.0397
2.5075 0.3344 0.0386
2.5125 0.3958 0.0427
2.5175 0.3910 0.0420
2.5225 0.4222 0.0443
2.5275 0.2903 0.0345
2.5325 0.3792 0.0407
2.5375 0.3460 0.0395
2.5425 0.3020 0.0372
2.5475 0.3847 0.0415
2.5525 0.3393 0.0387
2.5575 0.3243 0.0370
2.5625 0.2885 0.0358
2.5675 0.3046 0.0370
2.5725 0.2865 0.0361
2.5775 0.3534 0.0401
2.5825 0.2486 0.0325
2.5875 0.3626 0.0394
2.5925 0.2659 0.0344
2.5975 0.3203 0.0381
2.6025 0.2583 0.0343
2.6075 0.2945 0.0368
2.6125 0.2617 0.0327
2.6175 0.3403 0.0386
2.6225 0.2911 0.0361
2.6275 0.2927 0.0363
2.6325 0.3620 0.0405
2.6375 0.3070 0.0365
2.6425 0.2710 0.0339
2.6475 0.3447 0.0391
2.6525 0.2799 0.0353
2.6575 0.3027 0.0373
2.6625 0.2478 0.0337
2.6675 0.2708 0.0333
2.6725 0.3411 0.0386
2.6775 0.2160 0.0309
2.6825 0.2375 0.0329
2.6875 0.1944 0.0297
2.6925 0.2768 0.0343
2.6975 0.2481 0.0326
0.2137 0.0156 0.0092
0.2142 0.0306 0.0138
0.2147 0.0240 0.0122
0.2152 0.0375 0.0143
0.2157 0.0223 0.0113
0.2162 0.0285 0.0129
0.2167 0.0246 0.0124
0.2172 0.0213 0.0107
0.2177 0.0050 0.0052
0.2182 0.0176 0.0104
0.2188 0.0237 0.0120
0.2193 0.0268 0.0121
0.2198 0.0254 0.0114
