1.0675 0.2495 0.2498
1.0725 0.6374 0.0954
1.0775 0.5991 0.0825
1.0825 0.7225 0.0829
1.0875 0.6144 0.0667
1.0925 0.7211 0.0708
1.0975 0.7760 0.0712
1.1025 0.7269 0.0656
1.1075 0.7228 0.0603
1.1125 0.6835 0.0600
1.1175 0.6559 0.0567
1.1225 0.7962 0.0598
1.1275 0.7717 0.0571
1.1325 0.8217 0.0596
1.1375 0.8266 0.0598
1.1425 0.7733 0.0554
1.1475 0.7877 0.0572
1.1525 0.8970 0.0619
1.1575 0.9018 0.0607
1.1625 0.8851 0.0602
1.1675 0.8578 0.0598
1.1725 0.9368 0.0631
1.1775 0.9684 0.0622
1.1825 1.0290 0.0651
1.1875 1.1450 0.0688
1.1925 1.0040 0.0651
1.1975 0.8822 0.0588
1.2025 1.0850 0.0664
1.2075 1.0288 0.0657
1.2125 1.0834 0.0676
1.2175 1.0512 0.0641
1.2225 1.0953 0.0673
1.2275 1.1237 0.0683
1.2325 1.1555 0.0706
1.2375 1.0503 0.0637
1.2425 1.2312 0.0713
1.2475 1.1267 0.0691
1.2525 1.2684 0.0725
1.2575 1.1201 0.0672
1.2625 1.1721 0.0696
1.2675 1.2886 0.0734
1.2725 1.3497 0.0747
1.2775 1.4114 0.0744
1.2825 1.3489 0.0748
1.2875 1.4059 0.0777
1.2925 1.4849 0.0783
1.2975 1.5148 0.0780
1.3025 1.4022 0.0761
1.3075 1.5061 0.0797
1.3125 1.6135 0.0827
1.3175 1.5987 0.0792
1.3225 1.6685 0.0836
1.3275 1.7319 0.0855
1.3325 1.7532 0.0869
1.3375 1.7595 0.0836
1.3425 1.7029 0.0844
1.3475 1.5501 0.0807
1.3525 1.5893 0.0821
1.3575 1.7663 0.0842
1.3625 1.7589 0.0858
1.3675 1.6679 0.0837
1.3725 1.7046 0.0861
1.3775 1.8303 0.0871
1.3825 1.8053 0.0855
1.3875 1.6835 0.0848
1.3925 1.9583 0.0917
1.3975 1.8261 0.0889
1.4025 1.7726 0.0835
1.4075 1.6274 0.0825
1.4125 1.8969 0.0904
1.4175 1.7038 0.0857
1.4225 1.7296 0.0837
1.4275 1.9839 0.0907
1.4325 1.8317 0.0889
1.4375 1.7912 0.0873
1.4425 1.8777 0.0904
1.4475 1.9577 0.0883
1.4525 1.9018 0.0900
1.4575 1.7575 0.0872
1.4625 1.8647 0.0902
1.4675 1.8651 0.0876
1.4725 1.7545 0.0853
1.4775 1.7417 0.0866
1.4825 1.7155 0.0862
1.4875 1.8698 0.0904
1.4925 1.7260 0.0836
1.4975 1.7844 0.0866
1.5025 1.8548 0.0898
1.5075 1.6956 0.0864
1.5125 1.6189 0.0823
1.5175 1.7847 0.0861
1.5225 1.7557 0.0866
1.5275 1.6165 0.0838
1.5325 1.6529 0.0853
1.5375 1.5200 0.0794
1.5425 1.4969 0.0788
1.5475 1.4277 0.0791
1.5525 1.4562 0.0791
1.5575 1.5506 0.0830
1.5625 1.4304 0.0766
1.5675 1.4124 0.0772
1.5725 1.4911 0.0805
1.5775 1.4550 0.0799
1.5825 1.3832 0.0782
1.5875 1.3823 0.0751
1.5925 1.3866 0.0773
1.5975 1.3055 0.0750
1.6025 1.2235 0.0734
1.6075 1.1503 0.0713
1.6125 1.5348 0.0788
1.6175 1.2272 0.0726
1.6225 1.1589 0.0716
1.6275 1.2590 0.0745
1.6325 1.3455 0.0772
1.6375 1.1427 0.0683
1.6425 1.2501 0.0734
1.6475 1.0821 0.0683
1.6525 1.0765 0.0695
1.6575 1.1120 0.0703
1.6625 1.1518 0.0688
1.6675 1.1739 0.0714
1.6725 1.0622 0.0683
1.6775 1.0922 0.0694
1.6825 0.9903 0.0663
1.6875 1.0214 0.0652
1.6925 1.0470 0.0667
1.6975 0.9734 0.0652
1.7025 1.0523 0.0679
1.7075 1.0089 0.0677
1.7125 1.0294 0.0662
1.7175 0.8231 0.0589
1.7225 1.0347 0.0674
1.7275 0.9021 0.0632
1.7325 0.9321 0.0648
1.7375 0.9823 0.0654
1.7425 0.8108 0.0576
1.7475 1.0085 0.0668
1.7525 0.9687 0.0655
1.7575 0.7068 0.0564
1.7625 0.7156 0.0564
1.7675 0.8876 0.0607
1.7725 0.7825 0.0583
1.7775 0.9116 0.0634
1.7825 0.7934 0.0596
1.7875 0.7740 0.0587
1.7925 0.6894 0.0546
1.7975 0.7974 0.0584
1.8025 0.7291 0.0565
1.8075 0.7906 0.0591
1.8125 0.6421 0.0535
1.8175 0.7724 0.0594
1.8225 0.6436 0.0516
1.8275 0.7551 0.0574
1.8325 0.6510 0.0533
1.8375 0.6983 0.0560
1.8425 0.6653 0.0549
1.8475 0.6926 0.0548
1.8525 0.7626 0.0568
1.8575 0.7889 0.0590
1.8625 0.7280 0.0570
1.8675 0.7048 0.0566
1.8725 0.6787 0.0554
1.8775 0.7503 0.0559
1.8825 0.6739 0.0538
1.8875 0.6271 0.0528
1.8925 0.6050 0.0524
1.8975 0.6280 0.0534
1.9025 0.6506 0.0537
1.9075 0.6260 0.0513
1.9125 0.5461 0.0488
1.9175 0.7082 0.0564
1.9225 0.6181 0.0530
1.9275 0.6036 0.0521
1.9325 0.6196 0.0515
1.9375 0.6449 0.0528
1.9425 0.6085 0.0518
1.9475 0.5826 0.0515
1.9525 0.5723 0.0508
1.9575 0.7357 0.0578
1.9625 0.5913 0.0500
1.9675 0.5592 0.0494
1.9725 0.6766 0.0548
1.9775 0.5155 0.0481
1.9825 0.5905 0.0516
1.9875 0.4911 0.0477
1.9925 0.5357 0.0473
1.9975 0.5196 0.0476
2.0025 0.5807 0.0509
2.0075 0.5781 0.0509
2.0125 0.4133 0.0433
2.0175 0.5440 0.0503
2.0225 0.4472 0.0431
2.0275 0.5518 0.0488
2.0325 0.4593 0.0455
2.0375 0.3943 0.0420
2.0425 0.4607 0.0461
2.0475 0.4120 0.0432
2.0525 0.4045 0.0411
2.0575 0.3910 0.0415
2.0625 0.4816 0.0465
2.0675 0.4278 0.0442
2.0725 0.4332 0.0445
2.0775 0.4682 0.0453
2.0825 0.3947 0.0410
2.0875 0.3917 0.0418
2.0925 0.3928 0.0422
2.0975 0.4091 0.0429
2.1025 0.3784 0.0416
2.1075 0.4232 0.0430
2.1125 0.4911 0.0458
2.1175 0.3342 0.0386
2.1225 0.4384 0.0445
2.1275 0.4319 0.0441
2.1325 0.3912 0.0425
2.1375 0.3943 0.0416
2.1425 0.4053 0.0416
2.1475 0.4662 0.0455
2.1525 0.3506 0.0395
2.1575 0.3391 0.0394
2.1625 0.3542 0.0401
2.1675 0.3464 0.0392
2.1725 0.3427 0.0383
2.1775 0.3587 0.0397
2.1825 0.3255 0.0384
2.1875 0.2894 0.0362
2.1925 0.4131 0.0440
2.1975 0.3804 0.0406
2.2025 0.3042 0.0361
2.2075 0.3732 0.0407
2.2125 0.3795 0.0414
2.2175 0.4073 0.0429
2.2225 0.3738 0.0413
2.2275 0.3371 0.0387
2.2325 0.3541 0.0387
2.2375 0.4056 0.0426
2.2425 0.3794 0.0414
2.2475 0.3486 0.0400
2.2525 0.2991 0.0371
2.2575 0.3892 0.0410
2.2625 0.3662 0.0397
2.2675 0.3713 0.0405
2.2725 0.3639 0.0405
2.2775 0.3235 0.0387
2.2825 0.3511 0.0398
2.2875 0.3622 0.0400
2.2925 0.4057 0.0416
2.2975 0.3061 0.0369
2.3025 0.2539 0.0340
2.3075 0.3709 0.0410
2.3125 0.3064 0.0374
2.3175 0.3625 0.0399
2.3225 0.3283 0.0375
2.3275 0.3168 0.0377
2.3325 0.3313 0.0385
2.3375 0.3117 0.0376
2.3425 0.3078 0.0377
2.3475 0.2872 0.0354
2.3525 0.3453 0.0387
2.3575 0.3123 0.0371
2.3625 0.3222 0.0383
2.3675 0.3114 0.0378
2.3725 0.2584 0.0343
2.3775 0.3431 0.0386
2.3825 0.2749 0.0344
2.3875 0.2904 0.0361
2.3925 0.2997 0.0364
2.3975 0.3298 0.0389
2.4025 0.2412 0.0335
2.4075 0.3051 0.0363
2.4125 0.2953 0.0356
2.4175 0.2959 0.0362
2.4225 0.2200 0.0315
2.4275 0.2654 0.0349
2.4325 0.2950 0.0370
2.4375 0.2586 0.0332
2.4425 0.3110 0.0367
2.4475 0.2865 0.0356
2.4525 0.2687 0.0350
2.4575 0.3401 0.0393
2.4625 0.3142 0.0381
2.4675 0.2306 0.0311
2.4725 0.2807 0.0349
2.4775 0.2170 0.0311
2.4825 0.3248 0.0386
2.4875 0.2752 0.0353
2.4925 0.2447 0.0337
2.4975 0.2324 0.0311
2.5025 0.3353 0.0380
2.5075 0.2672 0.0345
2.5125 0.2849 0.0362
2.5175 0.3462 0.0395
2.5225 0.2640 0.0350
2.5275 0.2778 0.0337
2.5325 0.2877 0.0354
2.5375 0.2742 0.0351
2.5425 0.3434 0.0397
2.5475 0.2282 0.0320
2.5525 0.2780 0.0351
2.5575 0.2525 0.0326
2.5625 0.2260 0.0317
2.5675 0.2600 0.0341
2.5725 0.2369 0.0328
2.5775 0.1808 0.0287
2.5825 0.2364 0.0317
2.5875 0.1838 0.0281
2.5925 0.2400 0.0327
2.5975 0.2977 0.0367
2.6025 0.2946 0.0366
2.6075 0.1702 0.0280
2.6125 0.1923 0.0281
2.6175 0.2312 0.0318
2.6225 0.2061 0.0304
2.6275 0.2385 0.0328
2.6325 0.2440 0.0332
2.6375 0.1686 0.0270
2.6425 0.1692 0.0268
2.6475 0.1457 0.0254
2.6525 0.2132 0.0308
2.6575 0.2019 0.0304
2.6625 0.1465 0.0259
2.6675 0.1310 0.0232
2.6725 0.2227 0.0312
2.6775 0.1851 0.0286
2.6825 0.1644 0.0274
2.6875 0.1672 0.0275
2.6925 0.1317 0.0237
2.6975 0.1965 0.0290
0.2137 0.0156 0.0092
0.2142 0.0306 0.0138
0.2147 0.0240 0.0122
0.2152 0.0375 0.0143
0.2157 0.0223 0.0113
0.2162 0.0285 0.0129
0.2167 0.0246 0.0124
0.2172 0.0213 0.0107
0.2177 0.0050 0.0052
0.2182 0.0176 0.0104
0.2188 0.0237 0.0120
0.2193 0.0268 0.0121
0.2198 0.0254 0.0114
