1.0675 0.9931 0.4983
1.0725 0.6097 0.0933
1.0775 0.6573 0.0864
1.0825 0.7418 0.0841
1.0875 0.7086 0.0717
1.0925 0.7141 0.0704
1.0975 0.6914 0.0672
1.1025 0.9401 0.0746
1.1075 0.7327 0.0607
1.1125 0.7674 0.0636
1.1175 0.6950 0.0584
1.1225 0.7785 0.0591
1.1275 0.8554 0.0601
1.1325 0.8431 0.0604
1.1375 0.7745 0.0579
1.1425 0.9240 0.0606
1.1475 0.8167 0.0582
1.1525 0.8285 0.0595
1.1575 0.9181 0.0612
1.1625 0.8150 0.0578
1.1675 0.9331 0.0624
1.1725 0.8467 0.0600
1.1775 0.8726 0.0591
1.1825 0.9717 0.0632
1.1875 1.0622 0.0663
1.1925 0.9448 0.0631
1.1975 1.0548 0.0643
1.2025 1.0768 0.0662
1.2075 1.0755 0.0672
1.2125 1.1849 0.0707
1.2175 1.0816 0.0650
1.2225 1.1729 0.0696
1.2275 1.3025 0.0735
1.2325 1.3320 0.0758
1.2375 1.1660 0.0671
1.2425 1.2098 0.0707
1.2475 1.2964 0.0741
1.2525 1.3135 0.0738
1.2575 1.4222 0.0757
1.2625 1.2792 0.0727
1.2675 1.3715 0.0758
1.2725 1.2847 0.0729
1.2775 1.4076 0.0743
1.2825 1.4073 0.0764
1.2875 1.6114 0.0832
1.2925 1.4184 0.0766
1.2975 1.5394 0.0786
1.3025 1.5831 0.0809
1.3075 1.4248 0.0775
1.3125 1.7206 0.0854
1.3175 1.6619 0.0807
1.3225 1.6764 0.0838
1.3275 1.5514 0.0809
1.3325 1.5032 0.0805
1.3375 1.6476 0.0809
1.3425 1.7524 0.0856
1.3475 1.7681 0.0862
1.3525 1.8511 0.0886
1.3575 1.9108 0.0876
1.3625 1.8552 0.0881
1.3675 1.9038 0.0894
1.3725 1.9387 0.0918
1.3775 1.9793 0.0906
1.3825 2.0442 0.0910
1.3875 1.8078 0.0879
1.3925 1.9800 0.0922
1.3975 1.9519 0.0919
1.4025 1.9371 0.0873
1.4075 1.9961 0.0914
1.4125 1.9395 0.0914
1.4175 2.0101 0.0931
1.4225 2.0615 0.0914
1.4275 2.0539 0.0923
1.4325 1.8790 0.0900
1.4375 1.9658 0.0915
1.4425 1.9083 0.0911
1.4475 1.9183 0.0874
1.4525 1.8337 0.0883
1.4575 1.9226 0.0912
1.4625 1.9522 0.0923
1.4675 1.9758 0.0902
1.4725 2.0121 0.0914
1.4775 1.7934 0.0879
1.4825 1.7327 0.0866
1.4875 1.8075 0.0888
1.4925 1.7336 0.0838
1.4975 1.8815 0.0889
1.5025 1.8767 0.0903
1.5075 1.6210 0.0845
1.5125 1.8447 0.0879
1.5175 1.8755 0.0882
1.5225 1.7821 0.0873
1.5275 1.6641 0.0851
1.5325 1.6927 0.0864
1.5375 1.6618 0.0830
1.5425 1.5255 0.0796
1.5475 1.5936 0.0836
1.5525 1.5635 0.0819
1.5575 1.3989 0.0788
1.5625 1.4046 0.0759
1.5675 1.6012 0.0822
1.5725 1.4206 0.0786
1.5775 1.5167 0.0816
1.5825 1.4733 0.0807
1.5875 1.3411 0.0740
1.5925 1.4044 0.0778
1.5975 1.3321 0.0758
1.6025 1.4666 0.0804
1.6075 1.3935 0.0785
1.6125 1.2103 0.0700
1.6175 1.1977 0.0717
1.6225 1.3191 0.0764
1.6275 1.2596 0.0745
1.6325 1.1725 0.0720
1.6375 1.1550 0.0687
1.6425 1.1250 0.0696
1.6475 1.1509 0.0704
1.6525 1.0901 0.0699
1.6575 1.2546 0.0747
1.6625 1.0986 0.0672
1.6675 1.2563 0.0739
1.6725 1.2635 0.0744
1.6775 1.0799 0.0690
1.6825 1.0750 0.0691
1.6875 1.1706 0.0698
1.6925 1.0731 0.0676
1.6975 1.1087 0.0696
1.7025 1.1058 0.0696
1.7075 1.0634 0.0695
1.7125 1.0672 0.0674
1.7175 0.9329 0.0627
1.7225 0.8989 0.0628
1.7275 0.8667 0.0619
1.7325 0.9632 0.0659
1.7375 0.8860 0.0621
1.7425 0.9133 0.0612
1.7475 0.8666 0.0619
1.7525 0.9555 0.0650
1.7575 0.9137 0.0642
1.7625 0.8888 0.0629
1.7675 0.8209 0.0584
1.7725 0.8040 0.0591
1.7775 0.8586 0.0615
1.7825 0.8208 0.0607
1.7875 1.0187 0.0673
1.7925 0.8407 0.0603
1.7975 0.7675 0.0573
1.8025 0.8645 0.0616
1.8075 0.7155 0.0563
1.8125 0.8624 0.0620
1.8175 0.7536 0.0587
1.8225 0.8098 0.0578
1.8275 0.7282 0.0564
1.8325 0.7326 0.0566
1.8375 0.7399 0.0576
1.8425 0.7508 0.0583
1.8475 0.5843 0.0503
1.8525 0.5719 0.0492
1.8575 0.7795 0.0586
1.8625 0.7369 0.0574
1.8675 0.6726 0.0553
1.8725 0.6468 0.0541
1.8775 0.7628 0.0564
1.8825 0.6998 0.0548
1.8875 0.6889 0.0553
1.8925 0.6410 0.0540
1.8975 0.6367 0.0538
1.9025 0.7084 0.0560
1.9075 0.6217 0.0511
1.9125 0.5724 0.0500
1.9175 0.6499 0.0540
1.9225 0.4865 0.0470
1.9275 0.5363 0.0492
1.9325 0.5515 0.0485
1.9375 0.6193 0.0518
1.9425 0.5948 0.0512
1.9475 0.5956 0.0520
1.9525 0.5360 0.0491
1.9575 0.4811 0.0468
1.9625 0.5908 0.0499
1.9675 0.5895 0.0507
1.9725 0.5335 0.0487
1.9775 0.5737 0.0507
1.9825 0.4956 0.0472
1.9875 0.6297 0.0540
1.9925 0.6149 0.0507
1.9975 0.5595 0.0494
2.0025 0.5133 0.0479
2.0075 0.4888 0.0468
2.0125 0.4362 0.0445
2.0175 0.5811 0.0520
2.0225 0.4187 0.0417
2.0275 0.5261 0.0476
2.0325 0.5264 0.0487
2.0375 0.3937 0.0420
2.0425 0.4512 0.0456
2.0475 0.4840 0.0468
2.0525 0.3751 0.0395
2.0575 0.4301 0.0435
2.0625 0.5137 0.0480
2.0675 0.5060 0.0481
2.0725 0.5600 0.0506
2.0775 0.4684 0.0453
2.0825 0.4034 0.0414
2.0875 0.4055 0.0425
2.0925 0.3800 0.0415
2.0975 0.4226 0.0436
2.1025 0.4476 0.0452
2.1075 0.4962 0.0465
2.1125 0.4271 0.0427
2.1175 0.3791 0.0411
2.1225 0.3842 0.0417
2.1275 0.4272 0.0439
2.1325 0.4095 0.0434
2.1375 0.4379 0.0438
2.1425 0.4568 0.0442
2.1475 0.4753 0.0460
2.1525 0.4529 0.0449
2.1575 0.3390 0.0394
2.1625 0.4812 0.0468
2.1675 0.3375 0.0387
2.1725 0.3597 0.0393
2.1775 0.3990 0.0418
2.1825 0.4024 0.0427
2.1875 0.3753 0.0412
2.1925 0.3612 0.0412
2.1975 0.3632 0.0397
2.2025 0.4243 0.0427
2.2075 0.3598 0.0400
2.2125 0.2938 0.0365
2.2175 0.3298 0.0386
2.2225 0.3372 0.0392
2.2275 0.3016 0.0366
2.2325 0.3876 0.0404
2.2375 0.3120 0.0373
2.2425 0.3889 0.0419
2.2475 0.3711 0.0413
2.2525 0.4143 0.0437
2.2575 0.3893 0.0411
2.2625 0.3491 0.0388
2.2675 0.3095 0.0370
2.2725 0.3733 0.0410
2.2775 0.2682 0.0352
2.2825 0.3963 0.0423
2.2875 0.3492 0.0393
2.2925 0.2988 0.0357
2.2975 0.2573 0.0338
2.3025 0.3265 0.0385
2.3075 0.2803 0.0356
2.3125 0.2378 0.0330
2.3175 0.3583 0.0396
2.3225 0.3662 0.0396
2.3275 0.2897 0.0360
2.3325 0.3176 0.0377
2.3375 0.3345 0.0389
2.3425 0.3354 0.0393
2.3475 0.3219 0.0375
2.3525 0.3460 0.0387
2.3575 0.3127 0.0371
2.3625 0.2899 0.0363
2.3675 0.3113 0.0378
2.3725 0.3353 0.0390
2.3775 0.2861 0.0353
2.3825 0.3355 0.0380
2.3875 0.2996 0.0367
2.3925 0.3399 0.0388
2.3975 0.3255 0.0386
2.4025 0.3154 0.0383
2.4075 0.2449 0.0325
2.4125 0.2911 0.0353
2.4175 0.3582 0.0398
2.4225 0.2831 0.0357
2.4275 0.3203 0.0383
2.4325 0.2865 0.0364
2.4375 0.2799 0.0345
2.4425 0.2678 0.0340
2.4475 0.2955 0.0362
2.4525 0.2914 0.0365
2.4575 0.2674 0.0349
2.4625 0.3096 0.0379
2.4675 0.3351 0.0375
2.4725 0.3628 0.0396
2.4775 0.2969 0.0363
2.4825 0.3160 0.0381
2.4875 0.3115 0.0375
2.4925 0.2261 0.0324
2.4975 0.3490 0.0381
2.5025 0.2491 0.0328
2.5075 0.2583 0.0340
2.5125 0.2758 0.0357
2.5175 0.2832 0.0357
2.5225 0.2505 0.0341
2.5275 0.2779 0.0337
2.5325 0.3005 0.0362
2.5375 0.3010 0.0368
2.5425 0.2468 0.0336
2.5475 0.2725 0.0350
2.5525 0.3087 0.0370
2.5575 0.2359 0.0316
2.5625 0.2663 0.0344
2.5675 0.2554 0.0338
2.5725 0.2869 0.0361
2.5775 0.2853 0.0360
2.5825 0.2067 0.0297
2.5875 0.2054 0.0297
2.5925 0.1999 0.0298
2.5975 0.2168 0.0313
2.6025 0.2627 0.0346
2.6075 0.2396 0.0332
2.6125 0.2167 0.0298
2.6175 0.1874 0.0286
2.6225 0.1792 0.0283
2.6275 0.2292 0.0321
2.6325 0.1943 0.0297
2.6375 0.2115 0.0303
2.6425 0.1822 0.0278
2.6475 0.2031 0.0300
2.6525 0.2086 0.0304
2.6575 0.2202 0.0318
2.6625 0.2339 0.0328
2.6675 0.1679 0.0262
2.6725 0.1528 0.0258
2.6775 0.1542 0.0261
2.6825 0.1416 0.0254
2.6875 0.1673 0.0275
2.6925 0.1359 0.0241
2.6975 0.1281 0.0234
0.2137 0.0156 0.0092
0.2142 0.0306 0.0138
0.2147 0.0240 0.0122
0.2152 0.0375 0.0143
0.2157 0.0223 0.0113
0.2162 0.0285 0.0129
0.2167 0.0246 0.0124
0.2172 0.0213 0.0107
0.2177 0.0050 0.0052
0.2182 0.0176 0.0104
0.2188 0.0237 0.0120
0.2193 0.0268 0.0121
0.2198 0.0254 0.0114
