1.0675 0.2478 0.2489
1.0725 0.6090 0.0933
1.0775 0.7238 0.0907
1.0825 0.5224 0.0705
1.0875 0.5847 0.0651
1.0925 0.7212 0.0708
1.0975 0.6264 0.0640
1.1025 0.5377 0.0564
1.1075 0.6778 0.0584
1.1125 0.6573 0.0588
1.1175 0.7537 0.0608
1.1225 0.6222 0.0528
1.1275 0.6874 0.0539
1.1325 0.7181 0.0558
1.1375 0.6756 0.0541
1.1425 0.7738 0.0554
1.1475 0.8085 0.0579
1.1525 0.7297 0.0558
1.1575 0.7709 0.0561
1.1625 0.8031 0.0574
1.1675 0.7206 0.0548
1.1725 0.7708 0.0573
1.1775 0.8164 0.0571
1.1825 0.9794 0.0635
1.1875 0.9344 0.0621
1.1925 0.9492 0.0633
1.1975 0.9215 0.0601
1.2025 0.8774 0.0597
1.2075 0.9829 0.0643
1.2125 1.0158 0.0655
1.2175 1.0429 0.0638
1.2225 1.0705 0.0665
1.2275 1.1070 0.0678
1.2325 1.0989 0.0688
1.2375 1.1191 0.0657
1.2425 1.1813 0.0699
1.2475 1.2363 0.0724
1.2525 1.0986 0.0675
1.2575 1.2451 0.0709
1.2625 1.1106 0.0677
1.2675 1.3182 0.0743
1.2725 1.2428 0.0717
1.2775 1.2818 0.0709
1.2825 1.3410 0.0746
1.2875 1.4352 0.0785
1.2925 1.3738 0.0753
1.2975 1.4798 0.0771
1.3025 1.3195 0.0738
1.3075 1.4121 0.0772
1.3125 1.5332 0.0806
1.3175 1.4186 0.0746
1.3225 1.5512 0.0806
1.3275 1.5343 0.0805
1.3325 1.6672 0.0848
1.3375 1.6167 0.0801
1.3425 1.6938 0.0842
1.3475 1.8678 0.0886
1.3525 1.7319 0.0857
1.3575 1.6091 0.0804
1.3625 1.8204 0.0873
1.3675 1.6255 0.0826
1.3725 1.7955 0.0884
1.3775 1.8629 0.0879
1.3825 1.7890 0.0851
1.3875 1.9405 0.0911
1.3925 1.9062 0.0904
1.3975 1.8741 0.0901
1.4025 1.8938 0.0863
1.4075 1.9122 0.0894
1.4125 2.0907 0.0949
1.4175 2.0660 0.0944
1.4225 1.9532 0.0889
1.4275 2.1499 0.0944
1.4325 2.0648 0.0943
1.4375 2.1052 0.0946
1.4425 1.9298 0.0916
1.4475 1.9624 0.0884
1.4525 1.9350 0.0907
1.4575 2.0564 0.0944
1.4625 2.0173 0.0939
1.4675 1.8973 0.0884
1.4725 1.9789 0.0906
1.4775 2.0515 0.0940
1.4825 1.8413 0.0893
1.4875 1.9792 0.0930
1.4925 1.9812 0.0896
1.4975 1.9075 0.0895
1.5025 1.8258 0.0891
1.5075 1.8066 0.0892
1.5125 1.8272 0.0874
1.5175 1.9083 0.0890
1.5225 1.6962 0.0851
1.5275 1.9384 0.0918
1.5325 1.6261 0.0846
1.5375 1.7867 0.0861
1.5425 1.7608 0.0855
1.5475 1.6851 0.0860
1.5525 1.6364 0.0838
1.5575 1.6252 0.0850
1.5625 1.5034 0.0785
1.5675 1.6024 0.0822
1.5725 1.3902 0.0777
1.5775 1.3807 0.0778
1.5825 1.5338 0.0824
1.5875 1.4358 0.0766
1.5925 1.4604 0.0793
1.5975 1.2886 0.0745
1.6025 1.3613 0.0774
1.6075 1.4281 0.0795
1.6125 1.3440 0.0738
1.6175 1.3774 0.0769
1.6225 1.3635 0.0777
1.6275 1.2156 0.0732
1.6325 1.3320 0.0768
1.6375 1.3433 0.0740
1.6425 1.3326 0.0758
1.6475 1.3197 0.0754
1.6525 1.2156 0.0738
1.6575 1.2532 0.0746
1.6625 1.1073 0.0675
1.6675 1.1393 0.0704
1.6725 1.2582 0.0743
1.6775 1.1367 0.0708
1.6825 1.0627 0.0687
1.6875 0.9878 0.0642
1.6925 0.9832 0.0647
1.6975 1.0653 0.0682
1.7025 1.1004 0.0695
1.7075 1.1540 0.0724
1.7125 0.9652 0.0641
1.7175 0.9834 0.0644
1.7225 0.9161 0.0634
1.7275 0.9826 0.0659
1.7325 1.0351 0.0683
1.7375 0.9869 0.0655
1.7425 0.8850 0.0602
1.7475 0.9680 0.0654
1.7525 0.9467 0.0647
1.7575 0.8236 0.0609
1.7625 0.7732 0.0586
1.7675 0.8671 0.0600
1.7725 0.8735 0.0616
1.7775 0.8810 0.0623
1.7825 0.9145 0.0640
1.7875 0.8363 0.0610
1.7925 0.8504 0.0607
1.7975 0.8479 0.0602
1.8025 0.7635 0.0579
1.8075 0.6759 0.0547
1.8125 0.8529 0.0617
1.8175 0.7393 0.0581
1.8225 0.7357 0.0551
1.8275 0.6503 0.0533
1.8325 0.6991 0.0553
1.8375 0.7220 0.0569
1.8425 0.6108 0.0526
1.8475 0.7575 0.0573
1.8525 0.6399 0.0521
1.8575 0.7534 0.0576
1.8625 0.7588 0.0582
1.8675 0.7365 0.0579
1.8725 0.6606 0.0547
1.8775 0.7169 0.0547
1.8825 0.7172 0.0555
1.8875 0.7070 0.0561
1.8925 0.5595 0.0504
1.8975 0.5687 0.0508
1.9025 0.6863 0.0551
1.9075 0.6931 0.0540
1.9125 0.6253 0.0523
1.9175 0.6722 0.0549
1.9225 0.4866 0.0470
1.9275 0.6715 0.0550
1.9325 0.6931 0.0544
1.9375 0.5586 0.0492
1.9425 0.5773 0.0504
1.9475 0.5868 0.0516
1.9525 0.5633 0.0504
1.9575 0.5502 0.0500
1.9625 0.5363 0.0476
1.9675 0.6030 0.0513
1.9725 0.5252 0.0483
1.9775 0.5560 0.0499
1.9825 0.5542 0.0500
1.9875 0.5832 0.0520
1.9925 0.6153 0.0507
1.9975 0.5673 0.0498
2.0025 0.6069 0.0521
2.0075 0.5465 0.0495
2.0125 0.4317 0.0443
2.0175 0.5253 0.0494
2.0225 0.5266 0.0467
2.0275 0.5005 0.0464
2.0325 0.4051 0.0427
2.0375 0.5338 0.0489
2.0425 0.4654 0.0463
2.0475 0.5434 0.0496
2.0525 0.4293 0.0423
2.0575 0.4343 0.0437
2.0625 0.3700 0.0407
2.0675 0.4102 0.0433
2.0725 0.4103 0.0433
2.0775 0.3720 0.0404
2.0825 0.4374 0.0431
2.0875 0.3917 0.0418
2.0925 0.3385 0.0391
2.0975 0.4724 0.0461
2.1025 0.3648 0.0408
2.1075 0.4144 0.0425
2.1125 0.3926 0.0410
2.1175 0.3520 0.0396
2.1225 0.4428 0.0448
2.1275 0.3462 0.0395
2.1325 0.4699 0.0465
2.1375 0.4248 0.0432
2.1425 0.4565 0.0442
2.1475 0.4215 0.0433
2.1525 0.4575 0.0451
2.1575 0.4170 0.0437
2.1625 0.4402 0.0447
2.1675 0.3860 0.0414
2.1725 0.3814 0.0405
2.1775 0.3374 0.0385
2.1825 0.3979 0.0424
2.1875 0.3706 0.0409
2.1925 0.4225 0.0445
2.1975 0.3328 0.0380
2.2025 0.3132 0.0367
2.2075 0.3820 0.0412
2.2125 0.3164 0.0378
2.2175 0.3976 0.0424
2.2225 0.3331 0.0390
2.2275 0.3108 0.0372
2.2325 0.2867 0.0348
2.2375 0.2628 0.0343
2.2425 0.3982 0.0424
2.2475 0.4125 0.0435
2.2525 0.3315 0.0391
2.2575 0.3590 0.0394
2.2625 0.3877 0.0409
2.2675 0.3007 0.0365
2.2725 0.3778 0.0413
2.2775 0.3423 0.0398
2.2825 0.2520 0.0337
2.2875 0.3663 0.0403
2.2925 0.3502 0.0387
2.2975 0.2665 0.0344
2.3025 0.2901 0.0363
2.3075 0.3075 0.0373
2.3125 0.2514 0.0339
2.3175 0.2926 0.0358
2.3225 0.3071 0.0363
2.3275 0.3176 0.0377
2.3325 0.2458 0.0332
2.3375 0.3249 0.0383
2.3425 0.2758 0.0356
2.3475 0.3351 0.0383
2.3525 0.3540 0.0391
2.3575 0.3478 0.0391
2.3625 0.3127 0.0377
2.3675 0.3202 0.0383
2.3725 0.2857 0.0360
2.3775 0.3514 0.0391
2.3825 0.2969 0.0358
2.3875 0.3174 0.0377
2.3925 0.2825 0.0354
2.3975 0.3344 0.0392
2.4025 0.2734 0.0357
2.4075 0.3269 0.0375
2.4125 0.2912 0.0354
2.4175 0.2692 0.0345
2.4225 0.3100 0.0374
2.4275 0.2745 0.0355
2.4325 0.2908 0.0367
2.4375 0.3223 0.0370
2.4425 0.3065 0.0364
2.4475 0.2427 0.0328
2.4525 0.2872 0.0362
2.4575 0.2763 0.0354
2.4625 0.2678 0.0352
2.4675 0.2600 0.0331
2.4725 0.3757 0.0403
2.4775 0.2926 0.0361
2.4825 0.2608 0.0346
2.4875 0.2842 0.0359
2.4925 0.2447 0.0337
2.4975 0.3285 0.0370
2.5025 0.3094 0.0365
2.5075 0.3434 0.0392
2.5125 0.2390 0.0332
2.5175 0.2697 0.0349
2.5225 0.2316 0.0328
2.5275 0.2163 0.0298
2.5325 0.2352 0.0320
2.5375 0.2698 0.0349
2.5425 0.3067 0.0375
2.5475 0.2058 0.0304
2.5525 0.2601 0.0339
2.5575 0.2401 0.0318
2.5625 0.3107 0.0372
2.5675 0.2510 0.0335
2.5725 0.2456 0.0334
2.5775 0.2762 0.0354
2.5825 0.2918 0.0352
2.5875 0.2434 0.0323
2.5925 0.1952 0.0295
2.5975 0.2535 0.0339
2.6025 0.3038 0.0372
2.6075 0.1891 0.0295
2.6125 0.2211 0.0301
2.6175 0.2399 0.0324
2.6225 0.2422 0.0330
2.6275 0.1576 0.0266
2.6325 0.1806 0.0286
2.6375 0.1598 0.0263
2.6425 0.1651 0.0265
2.6475 0.1501 0.0258
2.6525 0.1824 0.0285
2.6575 0.1649 0.0275
2.6625 0.1786 0.0286
2.6675 0.1965 0.0284
2.6725 0.1919 0.0290
2.6775 0.2337 0.0321
2.6825 0.1046 0.0219
2.6875 0.1264 0.0239
2.6925 0.1784 0.0276
2.6975 0.1580 0.0260
0.2137 0.0156 0.0092
0.2142 0.0306 0.0138
0.2147 0.0240 0.0122
0.2152 0.0375 0.0143
0.2157 0.0223 0.0113
0.2162 0.0285 0.0129
0.2167 0.0246 0.0124
0.2172 0.0213 0.0107
0.2177 0.0050 0.0052
0.2182 0.0176 0.0104
0.2188 0.0237 0.0120
0.2193 0.0268 0.0121
0.2198 0.0254 0.0114
