1.0675 0.7381 0.4296
1.0725 1.8839 0.1640
1.0775 1.7768 0.1421
1.0825 1.8725 0.1335
1.0875 1.7131 0.1114
1.0925 1.8649 0.1138
1.0975 1.7208 0.1061
1.1025 1.9043 0.1062
1.1075 1.8375 0.0961
1.1125 1.8608 0.0990
1.1175 2.1106 0.1017
1.1225 2.2025 0.0994
1.1275 1.9443 0.0906
1.1325 1.9120 0.0910
1.1375 2.3033 0.0999
1.1425 2.2218 0.0939
1.1475 2.1233 0.0939
1.1525 2.1794 0.0965
1.1575 2.2936 0.0968
1.1625 2.4142 0.0995
1.1675 2.2365 0.0965
1.1725 2.4429 0.1020
1.1775 2.2898 0.0957
1.1825 2.4035 0.0995
1.1875 2.6782 0.1052
1.1925 2.4811 0.1023
1.1975 2.5257 0.0995
1.2025 2.7714 0.1061
1.2075 2.6764 0.1060
1.2125 2.7662 0.1080
1.2175 2.5580 0.1000
1.2225 2.6579 0.1048
1.2275 2.6092 0.1041
1.2325 2.6682 0.1072
1.2375 2.8114 0.1042
1.2425 2.7584 0.1068
1.2475 2.8246 0.1094
1.2525 3.0256 0.1120
1.2575 2.9972 0.1099
1.2625 2.8397 0.1083
1.2675 3.1664 0.1151
1.2725 3.2838 0.1165
1.2775 3.0657 0.1096
1.2825 3.1184 0.1138
1.2875 3.3304 0.1196
1.2925 3.1633 0.1143
1.2975 3.2070 0.1135
1.3025 3.3439 0.1175
1.3075 3.2880 0.1178
1.3125 3.4235 0.1204
1.3175 3.4520 0.1163
1.3225 3.2488 0.1166
1.3275 3.6042 0.1233
1.3325 3.4321 0.1216
1.3375 3.4944 0.1178
1.3425 3.4633 0.1204
1.3475 3.7662 0.1258
1.3525 3.5408 0.1225
1.3575 3.5299 0.1191
1.3625 3.4416 0.1200
1.3675 3.4029 0.1196
1.3725 3.5946 0.1250
1.3775 3.4973 0.1205
1.3825 3.6349 0.1213
1.3875 3.4917 0.1222
1.3925 3.6289 0.1248
1.3975 3.6170 0.1251
1.4025 3.7720 0.1219
1.4075 3.6152 0.1230
1.4125 3.6000 0.1246
1.4175 3.7261 0.1267
1.4225 3.7546 0.1233
1.4275 3.7851 0.1253
1.4325 3.7753 0.1276
1.4375 3.4295 0.1208
1.4425 3.5419 0.1241
1.4475 3.3787 0.1160
1.4525 3.5168 0.1223
1.4575 3.5206 0.1235
1.4625 3.5007 0.1236
1.4675 3.4987 0.1200
1.4725 3.4520 0.1197
1.4775 3.7286 0.1268
1.4825 3.4565 0.1223
1.4875 3.4678 0.1231
1.4925 3.2154 0.1141
1.4975 3.3072 0.1179
1.5025 3.6037 0.1252
1.5075 3.1618 0.1180
1.5125 3.0662 0.1133
1.5175 3.0670 0.1128
1.5225 3.2768 0.1183
1.5275 3.0942 0.1160
1.5325 2.9972 0.1149
1.5375 3.1909 0.1151
1.5425 3.0018 0.1116
1.5475 3.1607 0.1177
1.5525 2.9402 0.1123
1.5575 2.9002 0.1135
1.5625 2.6632 0.1045
1.5675 2.8324 0.1093
1.5725 2.6879 0.1081
1.5775 2.5658 0.1061
1.5825 2.7408 0.1101
1.5875 2.7530 0.1060
1.5925 2.6317 0.1065
1.5975 2.5943 0.1057
1.6025 2.6905 0.1089
1.6075 2.5257 0.1057
1.6125 2.4488 0.0996
1.6175 2.5621 0.1049
1.6225 2.6157 0.1076
1.6275 2.4477 0.1038
1.6325 2.5943 0.1071
1.6375 2.3585 0.0981
1.6425 2.4136 0.1020
1.6475 2.2978 0.0995
1.6525 2.3367 0.1024
1.6575 2.3258 0.1017
1.6625 2.0903 0.0927
1.6675 2.1958 0.0977
1.6725 2.1749 0.0977
1.6775 2.2029 0.0985
1.6825 2.3234 0.1016
1.6875 2.2171 0.0961
1.6925 2.0822 0.0941
1.6975 2.0553 0.0947
1.7025 1.9293 0.0920
1.7075 2.1037 0.0978
1.7125 1.9097 0.0901
1.7175 1.9832 0.0915
1.7225 2.1345 0.0968
1.7275 2.0215 0.0946
1.7325 1.8949 0.0924
1.7375 1.8690 0.0901
1.7425 1.7651 0.0851
1.7475 1.8088 0.0895
1.7525 1.7922 0.0891
1.7575 1.9493 0.0937
1.7625 1.8656 0.0911
1.7675 1.6510 0.0828
1.7725 1.7204 0.0865
1.7775 1.5815 0.0835
1.7825 1.7984 0.0898
1.7875 1.8050 0.0896
1.7925 1.6993 0.0858
1.7975 1.6667 0.0844
1.8025 1.7559 0.0878
1.8075 1.5417 0.0826
1.8125 1.7182 0.0876
1.8175 1.5551 0.0843
1.8225 1.5153 0.0791
1.8275 1.6018 0.0836
1.8325 1.5880 0.0833
1.8375 1.5117 0.0823
1.8425 1.4073 0.0798
1.8475 1.6574 0.0847
1.8525 1.5971 0.0823
1.8575 1.4008 0.0786
1.8625 1.3978 0.0790
1.8675 1.3728 0.0790
1.8725 1.3893 0.0793
1.8775 1.4931 0.0789
1.8825 1.5029 0.0803
1.8875 1.4667 0.0807
1.8925 1.4272 0.0805
1.8975 1.3240 0.0776
1.9025 1.3500 0.0773
1.9075 1.3399 0.0750
1.9125 1.3767 0.0775
1.9175 1.1609 0.0722
1.9225 1.3781 0.0791
1.9275 1.3292 0.0774
1.9325 1.3383 0.0756
1.9375 1.3557 0.0766
1.9425 1.2434 0.0740
1.9475 1.1964 0.0737
1.9525 1.2658 0.0755
1.9575 1.3538 0.0784
1.9625 1.2703 0.0732
1.9675 1.1445 0.0707
1.9725 1.2278 0.0739
1.9775 1.3365 0.0774
1.9825 1.0994 0.0704
1.9875 1.1434 0.0728
1.9925 1.0918 0.0676
1.9975 1.1928 0.0722
2.0025 1.1254 0.0709
2.0075 1.1160 0.0707
2.0125 1.0674 0.0697
2.0175 1.1812 0.0741
2.0225 1.0701 0.0666
2.0275 1.0250 0.0665
2.0325 1.0310 0.0681
2.0375 0.9454 0.0651
2.0425 1.1287 0.0721
2.0475 1.0007 0.0673
2.0525 0.9754 0.0638
2.0575 0.9957 0.0662
2.0625 1.0922 0.0700
2.0675 0.9328 0.0653
2.0725 0.9122 0.0645
2.0775 1.0865 0.0690
2.0825 0.9478 0.0635
2.0875 0.9886 0.0664
2.0925 0.8989 0.0638
2.0975 0.9218 0.0644
2.1025 1.0587 0.0695
2.1075 0.9986 0.0660
2.1125 0.9983 0.0653
2.1175 0.9052 0.0636
2.1225 0.9762 0.0665
2.1275 0.8635 0.0624
2.1325 0.9894 0.0675
2.1375 0.9465 0.0644
2.1425 0.9639 0.0642
2.1475 0.9593 0.0653
2.1525 0.9674 0.0656
2.1575 0.9620 0.0664
2.1625 0.8353 0.0616
2.1675 0.9588 0.0653
2.1725 0.9602 0.0642
2.1775 0.8283 0.0603
2.1825 0.8406 0.0617
2.1875 0.8543 0.0622
2.1925 0.9146 0.0655
2.1975 0.9909 0.0655
2.2025 0.8363 0.0599
2.2075 0.7904 0.0593
2.2125 0.8315 0.0613
2.2175 0.9139 0.0643
2.2225 0.9310 0.0652
2.2275 0.9995 0.0667
2.2325 0.7717 0.0571
2.2375 0.7678 0.0585
2.2425 0.8228 0.0610
2.2475 0.8213 0.0614
2.2525 0.8933 0.0642
2.2575 0.9079 0.0627
2.2625 0.9435 0.0638
2.2675 0.8308 0.0606
2.2725 0.7652 0.0587
2.2775 0.8414 0.0624
2.2825 0.8511 0.0619
2.2875 0.7774 0.0587
2.2925 0.8327 0.0597
2.2975 0.7765 0.0587
2.3025 0.7260 0.0574
2.3075 0.7194 0.0571
2.3125 0.7867 0.0599
2.3175 0.8043 0.0594
2.3225 0.7257 0.0558
2.3275 0.7365 0.0575
2.3325 0.6877 0.0555
2.3375 0.7811 0.0594
2.3425 0.8047 0.0609
2.3475 0.7263 0.0563
2.3525 0.7905 0.0585
2.3575 0.6688 0.0543
2.3625 0.7305 0.0576
2.3675 0.7458 0.0585
2.3725 0.7439 0.0581
2.3775 0.6942 0.0549
2.3825 0.6797 0.0541
2.3875 0.7517 0.0581
2.3925 0.6705 0.0545
2.3975 0.7143 0.0572
2.4025 0.8126 0.0615
2.4075 0.6709 0.0538
2.4125 0.8353 0.0599
2.4175 0.7468 0.0575
2.4225 0.6966 0.0560
2.4275 0.6869 0.0561
2.4325 0.7065 0.0572
2.4375 0.7731 0.0574
2.4425 0.7039 0.0552
2.4475 0.6705 0.0545
2.4525 0.7927 0.0602
2.4575 0.8026 0.0604
2.4625 0.7528 0.0590
2.4675 0.8090 0.0583
2.4725 0.7950 0.0587
2.4775 0.7179 0.0565
2.4825 0.6365 0.0540
2.4875 0.6542 0.0544
2.4925 0.6604 0.0553
2.4975 0.7527 0.0560
2.5025 0.7184 0.0556
2.5075 0.7081 0.0562
2.5125 0.6756 0.0558
2.5175 0.6022 0.0521
2.5225 0.6399 0.0546
2.5275 0.7114 0.0540
2.5325 0.6886 0.0548
2.5375 0.6606 0.0546
2.5425 0.6906 0.0563
2.5475 0.5945 0.0516
2.5525 0.7103 0.0561
2.5575 0.6529 0.0525
2.5625 0.6257 0.0527
2.5675 0.7307 0.0572
2.5725 0.6590 0.0547
2.5775 0.5744 0.0511
2.5825 0.6214 0.0514
2.5875 0.5980 0.0507
2.5925 0.5221 0.0482
2.5975 0.5778 0.0511
2.6025 0.6705 0.0552
2.6075 0.6716 0.0556
2.6125 0.6629 0.0521
2.6175 0.6633 0.0538
2.6225 0.5332 0.0489
2.6275 0.5767 0.0510
2.6325 0.5693 0.0508
2.6375 0.6228 0.0519
2.6425 0.5970 0.0503
2.6475 0.5261 0.0482
2.6525 0.5466 0.0493
2.6575 0.4958 0.0477
2.6625 0.6103 0.0529
2.6675 0.5456 0.0473
2.6725 0.5548 0.0492
2.6775 0.4628 0.0452
2.6825 0.5847 0.0517
2.6875 0.4975 0.0474
2.6925 0.5450 0.0482
2.6975 0.4744 0.0450
0.2137 0.0156 0.0092
0.2142 0.0306 0.0138
0.2147 0.0240 0.0122
0.2152 0.0375 0.0143
0.2157 0.0223 0.0113
0.2162 0.0285 0.0129
0.2167 0.0246 0.0124
0.2172 0.0213 0.0107
0.2177 0.0050 0.0052
0.2182 0.0176 0.0104
0.2188 0.0237 0.0120
0.2193 0.0268 0.0121
0.2198 0.0254 0.0114
