1.0675 0.4978 0.3528
1.0725 0.1413 0.0449
1.0775 0.1582 0.0424
1.0825 0.1520 0.0380
1.0875 0.2381 0.0415
1.0925 0.1801 0.0354
1.0975 0.1822 0.0345
1.1025 0.1476 0.0296
1.1075 0.1755 0.0297
1.1125 0.1521 0.0283
1.1175 0.1808 0.0298
1.1225 0.2327 0.0323
1.1275 0.2316 0.0313
1.1325 0.1857 0.0284
1.1375 0.1944 0.0290
1.1425 0.2335 0.0304
1.1475 0.3438 0.0378
1.1525 0.4569 0.0442
1.1575 0.4449 0.0426
1.1625 0.3891 0.0399
1.1675 0.2578 0.0328
1.1725 0.2634 0.0335
1.1775 0.2560 0.0320
1.1825 0.2466 0.0319
1.1875 0.2477 0.0320
1.1925 0.3542 0.0387
1.1975 0.3058 0.0346
1.2025 0.2718 0.0332
1.2075 0.2517 0.0325
1.2125 0.2275 0.0310
1.2175 0.2653 0.0322
1.2225 0.2475 0.0320
1.2275 0.2568 0.0326
1.2325 0.3400 0.0383
1.2375 0.2890 0.0334
1.2425 0.2684 0.0333
1.2475 0.3086 0.0362
1.2525 0.2897 0.0347
1.2575 0.2860 0.0340
1.2625 0.4163 0.0415
1.2675 0.3632 0.0390
1.2725 0.4620 0.0437
1.2775 0.4347 0.0413
1.2825 0.3980 0.0406
1.2875 0.3867 0.0407
1.2925 0.2760 0.0338
1.2975 0.3758 0.0388
1.3025 0.7215 0.0546
1.3075 0.9711 0.0640
1.3125 0.8602 0.0604
1.3175 0.7832 0.0554
1.3225 0.7311 0.0553
1.3275 1.6133 0.0825
1.3325 3.1496 0.1165
1.3375 2.6816 0.1032
1.3425 1.5671 0.0810
1.3475 0.7592 0.0565
1.3525 0.6053 0.0506
1.3575 0.5934 0.0488
1.3625 0.6863 0.0536
1.3675 1.3109 0.0742
1.3725 2.2914 0.0998
1.3775 1.9879 0.0908
1.3825 1.2792 0.0720
1.3875 0.7686 0.0573
1.3925 0.6054 0.0510
1.3975 0.5106 0.0470
1.4025 0.5587 0.0469
1.4075 0.4973 0.0456
1.4125 0.6591 0.0533
1.4175 0.8657 0.0611
1.4225 2.0209 0.0905
1.4275 6.2877 0.1615
1.4325 7.3145 0.1776
1.4375 4.2846 0.1350
1.4425 1.4599 0.0797
1.4475 0.8110 0.0568
1.4525 0.6720 0.0535
1.4575 0.4630 0.0448
1.4625 0.5153 0.0474
1.4675 0.4609 0.0435
1.4725 0.4312 0.0423
1.4775 0.4655 0.0448
1.4825 0.5279 0.0478
1.4875 0.4363 0.0436
1.4925 0.4573 0.0430
1.4975 0.5162 0.0466
1.5025 0.5952 0.0509
1.5075 0.7392 0.0571
1.5125 0.6650 0.0527
1.5175 0.6430 0.0517
1.5225 0.7303 0.0559
1.5275 0.8561 0.0610
1.5325 1.5199 0.0818
1.5375 2.9396 0.1104
1.5425 3.1315 0.1140
1.5475 2.1445 0.0970
1.5525 1.0152 0.0660
1.5575 0.6967 0.0556
1.5625 0.5449 0.0473
1.5675 0.6027 0.0504
1.5725 0.4780 0.0456
1.5775 0.5126 0.0474
1.5825 0.5174 0.0478
1.5875 0.5459 0.0472
1.5925 0.5252 0.0476
1.5975 0.4307 0.0431
1.6025 0.5016 0.0470
1.6075 0.5615 0.0498
1.6125 0.5100 0.0454
1.6175 0.5665 0.0493
1.6225 0.5308 0.0485
1.6275 0.5240 0.0480
1.6325 0.5309 0.0485
1.6375 0.4612 0.0434
1.6425 0.5474 0.0486
1.6475 0.3926 0.0411
1.6525 0.5246 0.0485
1.6575 0.6485 0.0537
1.6625 0.5885 0.0492
1.6675 0.8867 0.0621
1.6725 1.2678 0.0746
1.6775 2.2430 0.0994
1.6825 3.8889 0.1315
1.6875 6.5318 0.1650
1.6925 8.5474 0.1907
1.6975 8.4333 0.1919
1.7025 6.5027 0.1689
1.7075 4.1726 0.1377
1.7125 2.7309 0.1078
1.7175 1.8785 0.0890
1.7225 1.3680 0.0775
1.7275 1.2437 0.0742
1.7325 0.9675 0.0660
1.7375 0.8702 0.0615
1.7425 0.8192 0.0579
1.7475 0.5921 0.0512
1.7525 0.7392 0.0572
1.7575 0.7158 0.0568
1.7625 0.6978 0.0557
1.7675 0.5893 0.0494
1.7725 0.5736 0.0499
1.7775 0.6081 0.0518
1.7825 0.5786 0.0509
1.7875 0.5652 0.0501
1.7925 0.6160 0.0516
1.7975 0.5031 0.0464
1.8025 0.5637 0.0497
1.8075 0.4992 0.0470
1.8125 0.5271 0.0485
1.8175 0.5701 0.0510
1.8225 0.6229 0.0507
1.8275 0.5453 0.0488
1.8325 0.5020 0.0468
1.8375 0.5281 0.0487
1.8425 0.3795 0.0414
1.8475 0.5233 0.0476
1.8525 0.3898 0.0406
1.8575 0.4936 0.0466
1.8625 0.4685 0.0457
1.8675 0.4904 0.0472
1.8725 0.5654 0.0506
1.8775 0.5041 0.0458
1.8825 0.4463 0.0438
1.8875 0.4579 0.0451
1.8925 0.4770 0.0466
1.8975 0.4230 0.0438
1.9025 0.4912 0.0466
1.9075 0.3734 0.0396
1.9125 0.4065 0.0421
1.9175 0.3582 0.0401
1.9225 0.3588 0.0404
1.9275 0.4419 0.0446
1.9325 0.3934 0.0410
1.9375 0.3940 0.0413
1.9425 0.4405 0.0441
1.9475 0.3954 0.0424
1.9525 0.4415 0.0446
1.9575 0.4771 0.0466
1.9625 0.4899 0.0455
1.9675 0.6159 0.0519
1.9725 0.6096 0.0521
1.9775 0.5652 0.0503
1.9825 0.6853 0.0556
1.9875 0.5462 0.0503
1.9925 0.5147 0.0464
1.9975 0.4761 0.0456
2.0025 0.4643 0.0455
2.0075 0.4298 0.0439
2.0125 0.6501 0.0544
2.0175 0.6555 0.0552
2.0225 0.7011 0.0539
2.0275 0.6764 0.0540
2.0325 0.7343 0.0575
2.0375 0.7579 0.0583
2.0425 0.5713 0.0513
2.0475 0.6249 0.0532
2.0525 0.5714 0.0488
2.0575 0.4879 0.0464
2.0625 0.4235 0.0436
2.0675 0.4368 0.0447
2.0725 0.3823 0.0418
2.0775 0.3410 0.0387
2.0825 0.3396 0.0380
2.0875 0.3472 0.0394
2.0925 0.4020 0.0426
2.0975 0.4231 0.0437
2.1025 0.3099 0.0376
2.1075 0.2962 0.0360
2.1125 0.2728 0.0341
2.1175 0.3163 0.0376
2.1225 0.2711 0.0350
2.1275 0.2429 0.0331
2.1325 0.2114 0.0312
2.1375 0.2976 0.0361
2.1425 0.2985 0.0357
2.1475 0.2085 0.0304
2.1525 0.2041 0.0301
2.1575 0.2381 0.0330
2.1625 0.3315 0.0388
2.1675 0.2349 0.0323
2.1725 0.2871 0.0351
2.1775 0.2148 0.0307
2.1825 0.3348 0.0389
2.1875 0.2935 0.0364
2.1925 0.3186 0.0387
2.1975 0.2332 0.0318
2.2025 0.2827 0.0348
2.2075 0.3240 0.0379
2.2125 0.2257 0.0320
2.2175 0.2940 0.0365
2.2225 0.2551 0.0341
2.2275 0.2841 0.0355
2.2325 0.2361 0.0316
2.2375 0.2808 0.0354
2.2425 0.2801 0.0356
2.2475 0.2522 0.0340
2.2525 0.2392 0.0332
2.2575 0.3025 0.0362
2.2625 0.2712 0.0342
2.2675 0.1854 0.0286
2.2725 0.2159 0.0312
2.2775 0.2171 0.0317
2.2825 0.2293 0.0321
2.2875 0.2298 0.0319
2.2925 0.2174 0.0305
2.2975 0.2574 0.0338
2.3025 0.2267 0.0321
2.3075 0.2351 0.0326
2.3125 0.2056 0.0306
2.3175 0.2093 0.0303
2.3225 0.2608 0.0335
2.3275 0.2145 0.0310
2.3325 0.2552 0.0338
2.3375 0.2213 0.0316
2.3425 0.1926 0.0298
2.3475 0.2133 0.0305
2.3525 0.2199 0.0309
2.3575 0.2155 0.0308
2.3625 0.1859 0.0291
2.3675 0.2007 0.0303
2.3725 0.2174 0.0314
2.3775 0.2038 0.0298
2.3825 0.2451 0.0325
2.3875 0.2191 0.0313
2.3925 0.1895 0.0290
2.3975 0.1967 0.0300
2.4025 0.1578 0.0271
2.4075 0.1676 0.0269
2.4125 0.2053 0.0297
2.4175 0.1811 0.0283
2.4225 0.1974 0.0298
2.4275 0.2198 0.0318
2.4325 0.1938 0.0300
2.4375 0.1781 0.0275
2.4425 0.1896 0.0286
2.4475 0.1543 0.0261
2.4525 0.2094 0.0309
2.4575 0.2176 0.0314
2.4625 0.2540 0.0343
2.4675 0.2389 0.0317
2.4725 0.2551 0.0332
2.4775 0.2393 0.0326
2.4825 0.1965 0.0300
2.4875 0.2527 0.0338
2.4925 0.2263 0.0324
2.4975 0.1994 0.0288
2.5025 0.2622 0.0336
2.5075 0.2407 0.0328
2.5125 0.2207 0.0319
2.5175 0.2065 0.0305
2.5225 0.2549 0.0344
2.5275 0.2002 0.0286
2.5325 0.2440 0.0326
2.5375 0.1930 0.0295
2.5425 0.2150 0.0314
2.5475 0.2104 0.0307
2.5525 0.2115 0.0306
2.5575 0.2021 0.0292
2.5625 0.1863 0.0288
2.5675 0.2417 0.0329
2.5725 0.2274 0.0321
2.5775 0.2218 0.0318
2.5825 0.1724 0.0271
2.5875 0.1794 0.0277
2.5925 0.2085 0.0304
2.5975 0.2032 0.0303
2.6025 0.1944 0.0297
2.6075 0.1516 0.0264
2.6125 0.1884 0.0278
2.6175 0.1610 0.0265
2.6225 0.1523 0.0261
2.6275 0.1437 0.0254
2.6325 0.1626 0.0271
2.6375 0.1381 0.0245
2.6425 0.2029 0.0293
2.6475 0.1678 0.0272
2.6525 0.1687 0.0274
2.6575 0.1558 0.0267
2.6625 0.1557 0.0267
2.6675 0.1063 0.0209
2.6725 0.1395 0.0247
2.6775 0.1497 0.0257
2.6825 0.1001 0.0214
2.6875 0.1172 0.0230
2.6925 0.1276 0.0233
2.6975 0.1366 0.0242
0.2137 0.0156 0.0092
0.2142 0.0306 0.0138
0.2147 0.0240 0.0122
0.2152 0.0375 0.0143
0.2157 0.0223 0.0113
0.2162 0.0285 0.0129
0.2167 0.0246 0.0124
0.2172 0.0213 0.0107
0.2177 0.0050 0.0052
0.2182 0.0176 0.0104
0.2188 0.0237 0.0120
0.2193 0.0268 0.0121
0.2198 0.0254 0.0114
