1.0675 -0.0004 1.0000
1.0725 0.1977 0.0531
1.0775 0.1810 0.0453
1.0825 0.1995 0.0436
1.0875 0.1516 0.0331
1.0925 0.2627 0.0427
1.0975 0.1824 0.0345
1.1025 0.1120 0.0257
1.1075 0.1755 0.0297
1.1125 0.1626 0.0293
1.1175 0.2199 0.0328
1.1225 0.2284 0.0320
1.1275 0.2231 0.0307
1.1325 0.1988 0.0293
1.1375 0.2202 0.0309
1.1425 0.2575 0.0320
1.1475 0.3480 0.0380
1.1525 0.3971 0.0412
1.1575 0.4203 0.0414
1.1625 0.3726 0.0391
1.1675 0.2581 0.0328
1.1725 0.2933 0.0353
1.1775 0.3362 0.0367
1.1825 0.2878 0.0344
1.1875 0.3385 0.0374
1.1925 0.3625 0.0391
1.1975 0.2976 0.0342
1.2025 0.2434 0.0315
1.2075 0.2306 0.0311
1.2125 0.2695 0.0337
1.2175 0.2379 0.0305
1.2225 0.3139 0.0360
1.2275 0.2692 0.0334
1.2325 0.2583 0.0334
1.2375 0.2699 0.0323
1.2425 0.2969 0.0350
1.2475 0.2325 0.0314
1.2525 0.3068 0.0357
1.2575 0.3505 0.0376
1.2625 0.3132 0.0360
1.2675 0.4932 0.0454
1.2725 0.5701 0.0485
1.2775 0.4424 0.0417
1.2825 0.3734 0.0394
1.2875 0.3435 0.0384
1.2925 0.4579 0.0435
1.2975 0.5194 0.0457
1.3025 0.8040 0.0576
1.3075 1.0158 0.0655
1.3125 0.8728 0.0608
1.3175 0.8035 0.0561
1.3225 1.1327 0.0688
1.3275 2.6476 0.1057
1.3325 3.0284 0.1143
1.3375 2.2466 0.0944
1.3425 1.1368 0.0690
1.3475 0.7135 0.0548
1.3525 0.6815 0.0537
1.3575 0.6941 0.0528
1.3625 0.9708 0.0637
1.3675 1.7602 0.0860
1.3725 2.3517 0.1011
1.3775 1.7553 0.0853
1.3825 0.9186 0.0610
1.3875 0.6835 0.0540
1.3925 0.5666 0.0493
1.3975 0.5620 0.0493
1.4025 0.5193 0.0452
1.4075 0.6191 0.0509
1.4125 0.7846 0.0582
1.4175 1.3319 0.0758
1.4225 4.4466 0.1342
1.4275 8.2128 0.1846
1.4325 6.0176 0.1611
1.4375 2.5182 0.1035
1.4425 1.0556 0.0677
1.4475 0.6323 0.0502
1.4525 0.6123 0.0510
1.4575 0.5103 0.0470
1.4625 0.5455 0.0488
1.4675 0.5511 0.0476
1.4725 0.4684 0.0441
1.4775 0.5388 0.0482
1.4825 0.4978 0.0464
1.4875 0.6025 0.0513
1.4925 0.5997 0.0493
1.4975 0.6001 0.0502
1.5025 0.6649 0.0538
1.5075 0.7879 0.0589
1.5125 0.8784 0.0606
1.5175 0.8295 0.0587
1.5225 0.7946 0.0583
1.5275 1.3121 0.0755
1.5325 2.2878 0.1004
1.5375 3.3948 0.1187
1.5425 2.5773 0.1034
1.5475 1.2229 0.0732
1.5525 0.7452 0.0566
1.5575 0.5590 0.0498
1.5625 0.5491 0.0474
1.5675 0.5229 0.0470
1.5725 0.5036 0.0468
1.5775 0.5301 0.0482
1.5825 0.4860 0.0464
1.5875 0.4567 0.0432
1.5925 0.4864 0.0458
1.5975 0.5597 0.0491
1.6025 0.6778 0.0546
1.6075 0.5968 0.0514
1.6125 0.5543 0.0474
1.6175 0.5062 0.0466
1.6225 0.4377 0.0440
1.6275 0.5550 0.0494
1.6325 0.5970 0.0514
1.6375 0.5754 0.0485
1.6425 0.5471 0.0486
1.6475 0.5688 0.0495
1.6525 0.7399 0.0576
1.6575 0.7736 0.0586
1.6625 0.9669 0.0631
1.6675 1.6526 0.0848
1.6725 2.6066 0.1069
1.6775 4.7938 0.1453
1.6825 7.1744 0.1786
1.6875 9.1042 0.1948
1.6925 8.1780 0.1865
1.6975 5.8741 0.1602
1.7025 3.6332 0.1262
1.7075 2.6132 0.1090
1.7125 1.8545 0.0888
1.7175 1.4179 0.0773
1.7225 1.0920 0.0692
1.7275 0.9416 0.0645
1.7325 0.7960 0.0599
1.7375 0.7040 0.0553
1.7425 0.7375 0.0550
1.7475 0.6325 0.0529
1.7525 0.6771 0.0547
1.7575 0.5810 0.0512
1.7625 0.5549 0.0497
1.7675 0.5641 0.0484
1.7725 0.6347 0.0525
1.7775 0.5770 0.0504
1.7825 0.6500 0.0540
1.7875 0.5646 0.0501
1.7925 0.5416 0.0484
1.7975 0.5799 0.0498
1.8025 0.6506 0.0534
1.8075 0.7110 0.0561
1.8125 0.6021 0.0518
1.8175 0.5068 0.0481
1.8225 0.6112 0.0503
1.8275 0.4054 0.0421
1.8325 0.4623 0.0449
1.8375 0.4797 0.0464
1.8425 0.4433 0.0448
1.8475 0.4280 0.0430
1.8525 0.5036 0.0462
1.8575 0.5063 0.0472
1.8625 0.5715 0.0505
1.8675 0.5185 0.0485
1.8725 0.6069 0.0524
1.8775 0.5503 0.0479
1.8825 0.6009 0.0508
1.8875 0.4667 0.0455
1.8925 0.5090 0.0481
1.8975 0.5504 0.0500
1.9025 0.4469 0.0445
1.9075 0.4159 0.0418
1.9125 0.3981 0.0417
1.9175 0.4256 0.0437
1.9225 0.3679 0.0409
1.9275 0.4915 0.0471
1.9325 0.3847 0.0405
1.9375 0.5368 0.0482
1.9425 0.4938 0.0466
1.9475 0.4864 0.0470
1.9525 0.4506 0.0451
1.9575 0.4773 0.0466
1.9625 0.5445 0.0479
1.9675 0.6989 0.0552
1.9725 0.6765 0.0548
1.9775 0.6326 0.0533
1.9825 0.6222 0.0529
1.9875 0.5324 0.0496
1.9925 0.5148 0.0464
1.9975 0.5984 0.0511
2.0025 0.4960 0.0471
2.0075 0.5195 0.0483
2.0125 0.6499 0.0544
2.0175 0.7071 0.0573
2.0225 0.7337 0.0552
2.0275 0.8274 0.0597
2.0325 0.7074 0.0564
2.0375 0.7931 0.0596
2.0425 0.6221 0.0535
2.0475 0.5523 0.0500
2.0525 0.5380 0.0473
2.0575 0.4561 0.0448
2.0625 0.3565 0.0400
2.0675 0.3781 0.0415
2.0725 0.4417 0.0449
2.0775 0.4070 0.0423
2.0825 0.3645 0.0394
2.0875 0.3335 0.0386
2.0925 0.3296 0.0386
2.0975 0.3325 0.0387
2.1025 0.3191 0.0382
2.1075 0.3181 0.0373
2.1125 0.3241 0.0372
2.1175 0.3434 0.0392
2.1225 0.2620 0.0344
2.1275 0.2787 0.0354
2.1325 0.2621 0.0348
2.1375 0.2670 0.0342
2.1425 0.2470 0.0325
2.1475 0.2838 0.0355
2.1525 0.2839 0.0355
2.1575 0.2887 0.0364
2.1625 0.2950 0.0366
2.1675 0.3239 0.0379
2.1725 0.2530 0.0329
2.1775 0.2231 0.0313
2.1825 0.3162 0.0378
2.1875 0.2078 0.0307
2.1925 0.2109 0.0315
2.1975 0.2811 0.0349
2.2025 0.3085 0.0364
2.2075 0.2487 0.0332
2.2125 0.2393 0.0329
2.2175 0.2939 0.0365
2.2225 0.2234 0.0319
2.2275 0.3153 0.0374
2.2325 0.2863 0.0348
2.2375 0.2763 0.0351
2.2425 0.2484 0.0335
2.2475 0.2935 0.0367
2.2525 0.2023 0.0305
2.2575 0.2594 0.0335
2.2625 0.2151 0.0305
2.2675 0.2385 0.0325
2.2725 0.2112 0.0308
2.2775 0.1892 0.0296
2.2825 0.2203 0.0315
2.2875 0.2735 0.0348
2.2925 0.2819 0.0347
2.2975 0.2441 0.0329
2.3025 0.2676 0.0349
2.3075 0.2167 0.0313
2.3125 0.2561 0.0342
2.3175 0.2316 0.0319
2.3225 0.2212 0.0308
2.3275 0.2055 0.0304
2.3325 0.2681 0.0347
2.3375 0.2391 0.0329
2.3425 0.1604 0.0272
2.3475 0.1736 0.0275
2.3525 0.1987 0.0293
2.3575 0.1715 0.0275
2.3625 0.2359 0.0327
2.3675 0.1645 0.0275
2.3725 0.1857 0.0291
2.3775 0.1993 0.0294
2.3825 0.1933 0.0289
2.3875 0.1652 0.0272
2.3925 0.1849 0.0286
2.3975 0.2059 0.0307
2.4025 0.2087 0.0312
2.4075 0.2495 0.0328
2.4125 0.1669 0.0268
2.4175 0.1809 0.0283
2.4225 0.1707 0.0277
2.4275 0.1969 0.0301
2.4325 0.2634 0.0349
2.4375 0.1950 0.0288
2.4425 0.2246 0.0312
2.4475 0.2733 0.0348
2.4525 0.2460 0.0335
2.4575 0.1900 0.0294
2.4625 0.3280 0.0390
2.4675 0.1844 0.0278
2.4725 0.2677 0.0340
2.4775 0.2882 0.0358
2.4825 0.2744 0.0355
2.4875 0.2480 0.0335
2.4925 0.2263 0.0324
2.4975 0.2409 0.0317
2.5025 0.2578 0.0333
2.5075 0.1514 0.0260
2.5125 0.2203 0.0319
2.5175 0.2292 0.0321
2.5225 0.2224 0.0322
2.5275 0.2208 0.0301
2.5325 0.2349 0.0320
2.5375 0.2246 0.0318
2.5425 0.2196 0.0317
2.5475 0.2641 0.0344
2.5525 0.2159 0.0309
2.5575 0.1767 0.0273
2.5625 0.1950 0.0294
2.5675 0.1614 0.0269
2.5725 0.1773 0.0284
2.5775 0.1401 0.0252
2.5825 0.1902 0.0284
2.5875 0.1832 0.0280
2.5925 0.2349 0.0323
2.5975 0.2258 0.0320
2.6025 0.1586 0.0269
2.6075 0.2438 0.0335
2.6125 0.1677 0.0262
2.6175 0.1612 0.0265
2.6225 0.1654 0.0272
2.6275 0.1981 0.0299
2.6325 0.1580 0.0267
2.6375 0.1513 0.0256
2.6425 0.1693 0.0268
2.6475 0.1193 0.0230
2.6525 0.1644 0.0270
2.6575 0.1695 0.0279
2.6625 0.1698 0.0279
2.6675 0.1474 0.0246
2.6725 0.1658 0.0269
2.6775 0.1584 0.0264
2.6825 0.1139 0.0228
2.6875 0.1127 0.0226
2.6925 0.1274 0.0233
2.6975 0.1193 0.0226
0.2137 0.0156 0.0092
0.2142 0.0306 0.0138
0.2147 0.0240 0.0122
0.2152 0.0375 0.0143
0.2157 0.0223 0.0113
0.2162 0.0285 0.0129
0.2167 0.0246 0.0124
0.2172 0.0213 0.0107
0.2177 0.0050 0.0052
0.2182 0.0176 0.0104
0.2188 0.0237 0.0120
0.2193 0.0268 0.0121
0.2198 0.0254 0.0114
