1.0675 0.7494 0.4328
1.0725 0.6660 0.0975
1.0775 0.7582 0.0928
1.0825 0.7033 0.0818
1.0875 0.7880 0.0756
1.0925 0.6449 0.0669
1.0975 0.6911 0.0672
1.1025 0.7333 0.0659
1.1075 0.5969 0.0548
1.1125 0.7096 0.0611
1.1175 0.6904 0.0582
1.1225 0.7519 0.0581
1.1275 0.8008 0.0581
1.1325 0.7956 0.0587
1.1375 0.8915 0.0621
1.1425 0.7493 0.0545
1.1475 0.8711 0.0601
1.1525 0.7941 0.0583
1.1575 0.9142 0.0611
1.1625 0.8643 0.0595
1.1675 0.8870 0.0608
1.1725 0.9490 0.0635
1.1775 0.9433 0.0614
1.1825 0.8846 0.0603
1.1875 0.8099 0.0579
1.1925 1.0134 0.0654
1.1975 0.9286 0.0603
1.2025 1.1219 0.0675
1.2075 1.0500 0.0664
1.2125 1.0629 0.0670
1.2175 1.1133 0.0659
1.2225 1.1692 0.0695
1.2275 1.0075 0.0647
1.2325 1.2289 0.0728
1.2375 1.2853 0.0704
1.2425 1.3222 0.0739
1.2475 1.2787 0.0736
1.2525 1.1897 0.0703
1.2575 1.3380 0.0735
1.2625 1.4488 0.0774
1.2675 1.2879 0.0734
1.2725 1.4702 0.0779
1.2775 1.3758 0.0735
1.2825 1.5073 0.0791
1.2875 1.5348 0.0812
1.2925 1.5421 0.0798
1.2975 1.4788 0.0771
1.3025 1.4766 0.0781
1.3075 1.5640 0.0812
1.3125 1.5475 0.0810
1.3175 1.6511 0.0805
1.3225 1.6523 0.0831
1.3275 1.6107 0.0824
1.3325 1.6239 0.0837
1.3375 1.8508 0.0857
1.3425 1.6804 0.0839
1.3475 1.8095 0.0872
1.3525 1.6548 0.0837
1.3575 1.8801 0.0869
1.3625 1.7792 0.0863
1.3675 1.8164 0.0874
1.3725 1.8430 0.0895
1.3775 2.0586 0.0924
1.3825 1.8175 0.0858
1.3875 1.8381 0.0886
1.3925 1.8851 0.0899
1.3975 1.9084 0.0909
1.4025 1.8538 0.0854
1.4075 1.8369 0.0877
1.4125 1.9233 0.0911
1.4175 1.9018 0.0905
1.4225 1.8311 0.0861
1.4275 2.0623 0.0925
1.4325 2.0597 0.0942
1.4375 1.9232 0.0905
1.4425 2.0911 0.0953
1.4475 1.8871 0.0867
1.4525 1.9015 0.0900
1.4575 1.8878 0.0904
1.4625 1.8247 0.0893
1.4675 1.9056 0.0886
1.4725 1.8004 0.0864
1.4775 1.9232 0.0910
1.4825 1.6507 0.0845
1.4875 1.9574 0.0925
1.4925 1.6728 0.0823
1.4975 1.7566 0.0859
1.5025 1.8777 0.0904
1.5075 1.6911 0.0863
1.5125 1.6904 0.0841
1.5175 1.6979 0.0839
1.5225 1.6910 0.0850
1.5275 1.5080 0.0810
1.5325 1.6264 0.0846
1.5375 1.5948 0.0813
1.5425 1.7489 0.0852
1.5475 1.4922 0.0809
1.5525 1.5381 0.0812
1.5575 1.4349 0.0799
1.5625 1.4325 0.0766
1.5675 1.5056 0.0797
1.5725 1.4902 0.0805
1.5775 1.3325 0.0764
1.5825 1.3048 0.0760
1.5875 1.3952 0.0755
1.5925 1.3177 0.0754
1.5975 1.5170 0.0809
1.6025 1.3518 0.0772
1.6075 1.3309 0.0767
1.6125 1.4293 0.0761
1.6175 1.2825 0.0742
1.6225 1.2703 0.0750
1.6275 1.2552 0.0744
1.6325 1.2882 0.0755
1.6375 1.1835 0.0695
1.6425 1.1981 0.0719
1.6475 1.1513 0.0704
1.6525 1.1703 0.0724
1.6575 1.0667 0.0689
1.6625 1.1228 0.0680
1.6675 1.0690 0.0682
1.6725 1.1842 0.0721
1.6775 1.1368 0.0708
1.6825 1.1418 0.0712
1.6875 1.1168 0.0682
1.6925 1.1146 0.0689
1.6975 1.0517 0.0678
1.7025 1.0135 0.0667
1.7075 0.9453 0.0655
1.7125 1.0762 0.0677
1.7175 1.0131 0.0654
1.7225 0.9425 0.0643
1.7275 0.9736 0.0656
1.7325 0.9996 0.0671
1.7375 0.9696 0.0649
1.7425 0.9542 0.0625
1.7475 0.8848 0.0626
1.7525 0.9025 0.0632
1.7575 0.9180 0.0643
1.7625 0.9463 0.0649
1.7675 0.9461 0.0627
1.7725 0.8166 0.0596
1.7775 0.8763 0.0621
1.7825 0.8114 0.0603
1.7875 0.7964 0.0595
1.7925 0.8670 0.0613
1.7975 0.7156 0.0553
1.8025 0.7689 0.0581
1.8075 0.7948 0.0593
1.8125 0.7905 0.0594
1.8175 0.8171 0.0611
1.8225 0.7514 0.0557
1.8275 0.7895 0.0587
1.8325 0.7645 0.0578
1.8375 0.6941 0.0558
1.8425 0.7421 0.0579
1.8475 0.6798 0.0542
1.8525 0.7162 0.0551
1.8575 0.6960 0.0554
1.8625 0.8346 0.0610
1.8675 0.7455 0.0582
1.8725 0.7377 0.0578
1.8775 0.7168 0.0547
1.8825 0.6954 0.0546
1.8875 0.6359 0.0532
1.8925 0.7272 0.0575
1.8975 0.7642 0.0589
1.9025 0.5837 0.0508
1.9075 0.7138 0.0548
1.9125 0.5903 0.0508
1.9175 0.6140 0.0525
1.9225 0.5368 0.0494
1.9275 0.6082 0.0523
1.9325 0.6882 0.0542
1.9375 0.6105 0.0514
1.9425 0.6295 0.0527
1.9475 0.7051 0.0566
1.9525 0.5946 0.0518
1.9575 0.5497 0.0500
1.9625 0.5484 0.0481
1.9675 0.6117 0.0517
1.9725 0.5342 0.0487
1.9775 0.5559 0.0499
1.9825 0.5492 0.0497
1.9875 0.5232 0.0492
1.9925 0.4723 0.0445
1.9975 0.5240 0.0478
2.0025 0.5444 0.0493
2.0075 0.5692 0.0505
2.0125 0.4774 0.0466
2.0175 0.5161 0.0490
2.0225 0.4856 0.0449
2.0275 0.5129 0.0470
2.0325 0.4999 0.0475
2.0375 0.5336 0.0489
2.0425 0.5068 0.0483
2.0475 0.4572 0.0455
2.0525 0.3916 0.0404
2.0575 0.4129 0.0426
2.0625 0.4009 0.0424
2.0675 0.4599 0.0458
2.0725 0.4287 0.0442
2.0775 0.4647 0.0451
2.0825 0.4507 0.0438
2.0875 0.3694 0.0406
2.0925 0.3836 0.0417
2.0975 0.3778 0.0413
2.1025 0.4611 0.0459
2.1075 0.4703 0.0453
2.1125 0.3923 0.0409
2.1175 0.4414 0.0444
2.1225 0.4296 0.0441
2.1275 0.4721 0.0461
2.1325 0.4143 0.0437
2.1375 0.3944 0.0416
2.1425 0.4179 0.0423
2.1475 0.4130 0.0428
2.1525 0.3506 0.0395
2.1575 0.3344 0.0392
2.1625 0.4176 0.0436
2.1675 0.3908 0.0417
2.1725 0.4627 0.0446
2.1775 0.4162 0.0427
2.1825 0.3748 0.0412
2.1875 0.3659 0.0407
2.1925 0.3706 0.0417
2.1975 0.4280 0.0430
2.2025 0.3385 0.0381
2.2075 0.4175 0.0431
2.2125 0.3930 0.0422
2.2175 0.3799 0.0415
2.2225 0.4244 0.0440
2.2275 0.3469 0.0393
2.2325 0.3372 0.0377
2.2375 0.3926 0.0419
2.2425 0.3161 0.0378
2.2475 0.4082 0.0433
2.2525 0.3175 0.0383
2.2575 0.3198 0.0372
2.2625 0.3535 0.0390
2.2675 0.3537 0.0396
2.2725 0.3867 0.0417
2.2775 0.3283 0.0390
2.2825 0.3463 0.0395
2.2875 0.2872 0.0356
2.2925 0.3760 0.0401
2.2975 0.2794 0.0352
2.3025 0.3129 0.0377
2.3075 0.3350 0.0389
2.3125 0.3018 0.0371
2.3175 0.3708 0.0403
2.3225 0.2939 0.0355
2.3275 0.3217 0.0380
2.3325 0.3130 0.0375
2.3375 0.2482 0.0335
2.3425 0.3213 0.0385
2.3475 0.3221 0.0375
2.3525 0.2632 0.0338
2.3575 0.2773 0.0349
2.3625 0.3131 0.0377
2.3675 0.3847 0.0420
2.3725 0.2993 0.0369
2.3775 0.3124 0.0369
2.3825 0.2923 0.0355
2.3875 0.3354 0.0388
2.3925 0.3665 0.0403
2.3975 0.3388 0.0394
2.4025 0.3386 0.0397
2.4075 0.3056 0.0363
2.4125 0.3555 0.0391
2.4175 0.2471 0.0331
2.4225 0.2563 0.0340
2.4275 0.2793 0.0358
2.4325 0.2819 0.0361
2.4375 0.3268 0.0373
2.4425 0.2720 0.0343
2.4475 0.2426 0.0328
2.4525 0.2319 0.0325
2.4575 0.2720 0.0352
2.4625 0.3233 0.0387
2.4675 0.2347 0.0314
2.4725 0.2677 0.0340
2.4775 0.2792 0.0352
2.4825 0.2701 0.0352
2.4875 0.2708 0.0350
2.4925 0.3602 0.0408
2.4975 0.3111 0.0360
2.5025 0.2968 0.0358
2.5075 0.3075 0.0371
2.5125 0.2252 0.0322
2.5175 0.3015 0.0369
2.5225 0.2781 0.0360
2.5275 0.2409 0.0314
2.5325 0.2703 0.0344
2.5375 0.2741 0.0351
2.5425 0.2977 0.0370
2.5475 0.2369 0.0326
2.5525 0.3042 0.0367
2.5575 0.2443 0.0321
2.5625 0.2704 0.0347
2.5675 0.2374 0.0326
2.5725 0.2044 0.0305
2.5775 0.2355 0.0327
2.5825 0.2917 0.0352
2.5875 0.2691 0.0340
2.5925 0.2216 0.0314
2.5975 0.2399 0.0329
2.6025 0.2039 0.0304
2.6075 0.2206 0.0319
2.6125 0.2089 0.0293
2.6175 0.1787 0.0279
2.6225 0.1836 0.0287
2.6275 0.2023 0.0302
2.6325 0.2082 0.0307
2.6375 0.2247 0.0312
2.6425 0.2033 0.0294
2.6475 0.1545 0.0261
2.6525 0.2221 0.0314
2.6575 0.1742 0.0283
2.6625 0.1422 0.0255
2.6675 0.1391 0.0239
2.6725 0.1878 0.0286
2.6775 0.1671 0.0271
2.6825 0.1322 0.0246
2.6875 0.1807 0.0286
2.6925 0.1403 0.0244
2.6975 0.1665 0.0267
0.2137 0.0156 0.0092
0.2142 0.0306 0.0138
0.2147 0.0240 0.0122
0.2152 0.0375 0.0143
0.2157 0.0223 0.0113
0.2162 0.0285 0.0129
0.2167 0.0246 0.0124
0.2172 0.0213 0.0107
0.2177 0.0050 0.0052
0.2182 0.0176 0.0104
0.2188 0.0237 0.0120
0.2193 0.0268 0.0121
0.2198 0.0254 0.0114
