1.0675 0.2448 0.2474
1.0725 0.2401 0.0586
1.0775 0.1695 0.0439
1.0825 0.1708 0.0403
1.0875 0.2021 0.0383
1.0925 0.1728 0.0346
1.0975 0.1955 0.0357
1.1025 0.1592 0.0307
1.1075 0.1954 0.0313
1.1125 0.1679 0.0297
1.1175 0.1954 0.0310
1.1225 0.2236 0.0317
1.1275 0.2525 0.0326
1.1325 0.1985 0.0293
1.1375 0.2418 0.0324
1.1425 0.3364 0.0365
1.1475 0.3438 0.0378
1.1525 0.4223 0.0425
1.1575 0.3668 0.0387
1.1625 0.3359 0.0371
1.1675 0.3206 0.0365
1.1725 0.2339 0.0315
1.1775 0.3318 0.0364
1.1825 0.2957 0.0349
1.1875 0.4297 0.0421
1.1925 0.4087 0.0415
1.1975 0.3132 0.0350
1.2025 0.2721 0.0333
1.2075 0.3359 0.0376
1.2125 0.3583 0.0389
1.2175 0.2927 0.0338
1.2225 0.2557 0.0325
1.2275 0.2529 0.0324
1.2325 0.2583 0.0334
1.2375 0.3239 0.0354
1.2425 0.3881 0.0400
1.2475 0.3597 0.0390
1.2525 0.3731 0.0393
1.2575 0.3624 0.0382
1.2625 0.4165 0.0415
1.2675 0.4719 0.0444
1.2725 0.3797 0.0396
1.2775 0.3954 0.0394
1.2825 0.3648 0.0389
1.2875 0.4293 0.0429
1.2925 0.5564 0.0479
1.2975 0.6277 0.0502
1.3025 1.0973 0.0673
1.3075 0.9818 0.0644
1.3125 0.7115 0.0549
1.3175 0.8896 0.0591
1.3225 1.7264 0.0850
1.3275 3.1234 0.1148
1.3325 2.9672 0.1131
1.3375 1.6169 0.0801
1.3425 0.7185 0.0548
1.3475 0.6470 0.0521
1.3525 0.6266 0.0515
1.3575 0.8229 0.0575
1.3625 1.3897 0.0763
1.3675 2.1606 0.0953
1.3725 2.3479 0.1010
1.3775 1.4067 0.0764
1.3825 0.7083 0.0536
1.3875 0.7855 0.0579
1.3925 0.4981 0.0462
1.3975 0.6145 0.0516
1.4025 0.6217 0.0495
1.4075 0.7445 0.0558
1.4125 0.9908 0.0653
1.4175 2.3755 0.1012
1.4225 6.6891 0.1646
1.4275 8.1111 0.1835
1.4325 4.2592 0.1355
1.4375 1.6037 0.0826
1.4425 0.7079 0.0555
1.4475 0.6206 0.0497
1.4525 0.6248 0.0516
1.4575 0.6274 0.0521
1.4625 0.6853 0.0547
1.4675 0.5553 0.0478
1.4725 0.5475 0.0477
1.4775 0.6031 0.0510
1.4825 0.5236 0.0476
1.4875 0.6424 0.0530
1.4925 0.6277 0.0504
1.4975 0.7180 0.0549
1.5025 0.7820 0.0583
1.5075 0.8061 0.0596
1.5125 0.7781 0.0571
1.5175 0.8669 0.0600
1.5225 0.9695 0.0644
1.5275 1.8864 0.0906
1.5325 3.0584 0.1161
1.5375 3.0418 0.1123
1.5425 1.8080 0.0866
1.5475 1.0826 0.0689
1.5525 0.7106 0.0552
1.5575 0.5236 0.0482
1.5625 0.6472 0.0515
1.5675 0.6034 0.0505
1.5725 0.5127 0.0472
1.5775 0.5215 0.0478
1.5825 0.5607 0.0498
1.5875 0.4806 0.0443
1.5925 0.5770 0.0499
1.5975 0.6633 0.0535
1.6025 0.6296 0.0527
1.6075 0.6629 0.0542
1.6125 0.6029 0.0494
1.6175 0.6348 0.0522
1.6225 0.5484 0.0493
1.6275 0.5326 0.0484
1.6325 0.6149 0.0522
1.6375 0.5630 0.0479
1.6425 0.7024 0.0550
1.6475 0.7801 0.0580
1.6525 0.7666 0.0586
1.6575 1.0048 0.0668
1.6625 1.4321 0.0768
1.6675 2.6842 0.1080
1.6725 4.4631 0.1399
1.6775 7.0535 0.1763
1.6825 8.9506 0.1995
1.6875 9.3874 0.1978
1.6925 6.4150 0.1652
1.6975 4.3237 0.1374
1.7025 2.8725 0.1122
1.7075 2.1221 0.0982
1.7125 1.4466 0.0785
1.7175 1.1984 0.0711
1.7225 1.0921 0.0692
1.7275 0.9287 0.0641
1.7325 0.8414 0.0616
1.7375 0.8784 0.0618
1.7425 0.7456 0.0553
1.7475 0.7652 0.0582
1.7525 0.7389 0.0572
1.7575 0.6162 0.0527
1.7625 0.5997 0.0516
1.7675 0.5064 0.0458
1.7725 0.7603 0.0575
1.7775 0.5990 0.0514
1.7825 0.7622 0.0585
1.7875 0.5377 0.0489
1.7925 0.6203 0.0518
1.7975 0.5539 0.0487
1.8025 0.6285 0.0525
1.8075 0.5121 0.0476
1.8125 0.6155 0.0524
1.8175 0.4656 0.0461
1.8225 0.4956 0.0453
1.8275 0.5150 0.0474
1.8325 0.5325 0.0482
1.8375 0.4705 0.0459
1.8425 0.4434 0.0448
1.8475 0.4719 0.0452
1.8525 0.6441 0.0522
1.8575 0.5014 0.0470
1.8625 0.5491 0.0495
1.8675 0.6184 0.0530
1.8725 0.5655 0.0506
1.8775 0.6295 0.0512
1.8825 0.6701 0.0536
1.8875 0.4754 0.0460
1.8925 0.5319 0.0492
1.8975 0.4912 0.0472
1.9025 0.4779 0.0460
1.9075 0.4957 0.0456
1.9125 0.4980 0.0466
1.9175 0.4345 0.0441
1.9225 0.4726 0.0463
1.9275 0.4461 0.0448
1.9325 0.4618 0.0444
1.9375 0.4326 0.0433
1.9425 0.5246 0.0481
1.9475 0.4774 0.0466
1.9525 0.5002 0.0475
1.9575 0.5542 0.0502
1.9625 0.6245 0.0513
1.9675 0.7124 0.0558
1.9725 0.6900 0.0554
1.9775 0.6911 0.0557
1.9825 0.6086 0.0524
1.9875 0.5740 0.0515
1.9925 0.5187 0.0466
1.9975 0.4238 0.0430
2.0025 0.6835 0.0552
2.0075 0.6458 0.0538
2.0125 0.7866 0.0598
2.0175 0.7302 0.0583
2.0225 0.7215 0.0547
2.0275 0.6768 0.0540
2.0325 0.7661 0.0587
2.0375 0.7086 0.0564
2.0425 0.5620 0.0509
2.0475 0.4977 0.0475
2.0525 0.5169 0.0464
2.0575 0.4825 0.0461
2.0625 0.4141 0.0431
2.0675 0.3781 0.0415
2.0725 0.4244 0.0440
2.0775 0.3807 0.0409
2.0825 0.4459 0.0436
2.0875 0.3164 0.0376
2.0925 0.2662 0.0347
2.0975 0.2654 0.0346
2.1025 0.2553 0.0341
2.1075 0.3227 0.0375
2.1125 0.3328 0.0377
2.1175 0.2894 0.0359
2.1225 0.3478 0.0397
2.1275 0.3012 0.0368
2.1325 0.3265 0.0388
2.1375 0.2845 0.0353
2.1425 0.2515 0.0328
2.1475 0.3108 0.0372
2.1525 0.3284 0.0382
2.1575 0.3208 0.0384
2.1625 0.3084 0.0374
2.1675 0.3020 0.0366
2.1725 0.3388 0.0381
2.1775 0.2363 0.0322
2.1825 0.2530 0.0338
2.1875 0.2347 0.0326
2.1925 0.2392 0.0335
2.1975 0.2461 0.0326
2.2025 0.3603 0.0393
2.2075 0.2709 0.0347
2.2125 0.2213 0.0316
2.2175 0.2890 0.0362
2.2225 0.2874 0.0362
2.2275 0.2305 0.0320
2.2325 0.2737 0.0340
2.2375 0.3034 0.0368
2.2425 0.2303 0.0323
2.2475 0.3118 0.0378
2.2525 0.2251 0.0322
2.2575 0.2462 0.0326
2.2625 0.2411 0.0322
2.2675 0.1943 0.0293
2.2725 0.2697 0.0349
2.2775 0.2773 0.0358
2.2825 0.2744 0.0352
2.2875 0.2119 0.0306
2.2925 0.2774 0.0344
2.2975 0.2083 0.0304
2.3025 0.2356 0.0327
2.3075 0.2895 0.0362
2.3125 0.2557 0.0342
2.3175 0.2708 0.0345
2.3225 0.1964 0.0290
2.3275 0.2360 0.0325
2.3325 0.2322 0.0323
2.3375 0.1936 0.0296
2.3425 0.2156 0.0315
2.3475 0.1825 0.0282
2.3525 0.2070 0.0299
2.3575 0.2462 0.0329
2.3625 0.1949 0.0298
2.3675 0.2058 0.0307
2.3725 0.1946 0.0297
2.3775 0.2559 0.0334
2.3825 0.2321 0.0316
2.3875 0.2099 0.0307
2.3925 0.2117 0.0306
2.3975 0.1600 0.0271
2.4025 0.1716 0.0282
2.4075 0.1848 0.0282
2.4125 0.2354 0.0318
2.4175 0.1145 0.0225
2.4225 0.2427 0.0331
2.4275 0.2288 0.0324
2.4325 0.2400 0.0333
2.4375 0.2671 0.0337
2.4425 0.1943 0.0290
2.4475 0.2468 0.0330
2.4525 0.2233 0.0319
2.4575 0.2904 0.0363
2.4625 0.2771 0.0358
2.4675 0.2010 0.0291
2.4725 0.2031 0.0296
2.4775 0.2347 0.0323
2.4825 0.1735 0.0282
2.4875 0.2388 0.0329
2.4925 0.2355 0.0330
2.4975 0.1950 0.0285
2.5025 0.1890 0.0285
2.5075 0.1781 0.0282
2.5125 0.2942 0.0368
2.5175 0.2067 0.0305
2.5225 0.2551 0.0344
2.5275 0.2166 0.0298
2.5325 0.2920 0.0357
2.5375 0.2649 0.0345
2.5425 0.2149 0.0314
2.5475 0.2279 0.0320
2.5525 0.2777 0.0351
2.5575 0.1725 0.0270
2.5625 0.1730 0.0277
2.5675 0.1968 0.0297
2.5725 0.1817 0.0287
2.5775 0.1947 0.0297
2.5825 0.1772 0.0275
2.5875 0.3075 0.0363
2.5925 0.2129 0.0308
2.5975 0.1897 0.0293
2.6025 0.1585 0.0268
2.6075 0.1608 0.0272
2.6125 0.1965 0.0284
2.6175 0.1568 0.0262
2.6225 0.1475 0.0257
2.6275 0.1938 0.0295
2.6325 0.1986 0.0300
2.6375 0.1727 0.0273
2.6425 0.1523 0.0254
2.6475 0.1369 0.0246
2.6525 0.1377 0.0247
2.6575 0.1650 0.0275
2.6625 0.1651 0.0275
2.6675 0.1638 0.0259
2.6725 0.1222 0.0231
2.6775 0.1056 0.0216
2.6825 0.0956 0.0209
2.6875 0.1673 0.0275
2.6925 0.0850 0.0190
2.6975 0.1152 0.0222
0.2137 0.0156 0.0092
0.2142 0.0306 0.0138
0.2147 0.0240 0.0122
0.2152 0.0375 0.0143
0.2157 0.0223 0.0113
0.2162 0.0285 0.0129
0.2167 0.0246 0.0124
0.2172 0.0213 0.0107
0.2177 0.0050 0.0052
0.2182 0.0176 0.0104
0.2188 0.0237 0.0120
0.2193 0.0268 0.0121
0.2198 0.0254 0.0114
