1.0675 -0.0004 1.0000
1.0725 0.1694 0.0492
1.0775 0.0898 0.0319
1.0825 0.1611 0.0392
1.0875 0.1950 0.0376
1.0925 0.1245 0.0294
1.0975 0.1626 0.0326
1.1025 0.2602 0.0392
1.1075 0.2104 0.0325
1.1125 0.1838 0.0311
1.1175 0.2201 0.0329
1.1225 0.2011 0.0300
1.1275 0.1303 0.0234
1.1325 0.2248 0.0312
1.1375 0.1989 0.0293
1.1425 0.1819 0.0269
1.1475 0.3772 0.0396
1.1525 0.4265 0.0427
1.1575 0.4241 0.0416
1.1625 0.3028 0.0352
1.1675 0.3160 0.0363
1.1725 0.2510 0.0327
1.1775 0.2117 0.0291
1.1825 0.2548 0.0324
1.1875 0.3798 0.0396
1.1925 0.3249 0.0370
1.1975 0.3409 0.0366
1.2025 0.3778 0.0392
1.2075 0.2099 0.0297
1.2125 0.2314 0.0312
1.2175 0.2693 0.0324
1.2225 0.2643 0.0330
1.2275 0.3067 0.0357
1.2325 0.2498 0.0328
1.2375 0.2428 0.0306
1.2425 0.3179 0.0362
1.2475 0.2536 0.0328
1.2525 0.3107 0.0359
1.2575 0.3018 0.0349
1.2625 0.3092 0.0357
1.2675 0.4767 0.0447
1.2725 0.4084 0.0411
1.2775 0.4230 0.0407
1.2825 0.3774 0.0396
1.2875 0.3303 0.0377
1.2925 0.3956 0.0404
1.2975 0.5234 0.0458
1.3025 0.7587 0.0560
1.3075 1.0123 0.0654
1.3125 0.8950 0.0616
1.3175 0.7445 0.0540
1.3225 1.0485 0.0662
1.3275 2.1546 0.0953
1.3325 3.3225 0.1197
1.3375 2.4927 0.0995
1.3425 1.1864 0.0705
1.3475 0.7260 0.0552
1.3525 0.6308 0.0517
1.3575 0.6341 0.0505
1.3625 0.8670 0.0602
1.3675 1.5331 0.0803
1.3725 2.2040 0.0979
1.3775 1.8304 0.0871
1.3825 1.0971 0.0666
1.3875 0.6659 0.0533
1.3925 0.6138 0.0513
1.3975 0.4886 0.0460
1.4025 0.6300 0.0498
1.4075 0.5354 0.0473
1.4125 0.6681 0.0537
1.4175 1.0694 0.0679
1.4225 3.2442 0.1146
1.4275 7.7171 0.1789
1.4325 6.7436 0.1705
1.4375 2.8249 0.1096
1.4425 1.2597 0.0740
1.4475 0.7082 0.0531
1.4525 0.6035 0.0507
1.4575 0.5538 0.0490
1.4625 0.5234 0.0478
1.4675 0.5391 0.0471
1.4725 0.5429 0.0475
1.4775 0.4136 0.0422
1.4825 0.6278 0.0521
1.4875 0.5896 0.0507
1.4925 0.4973 0.0449
1.4975 0.5249 0.0470
1.5025 0.6082 0.0514
1.5075 0.7128 0.0560
1.5125 0.6904 0.0537
1.5175 0.7716 0.0566
1.5225 0.9442 0.0635
1.5275 1.0513 0.0676
1.5325 2.0583 0.0952
1.5375 3.2229 0.1156
1.5425 2.9043 0.1098
1.5475 1.6156 0.0842
1.5525 0.9199 0.0628
1.5575 0.6487 0.0537
1.5625 0.5604 0.0479
1.5675 0.6025 0.0504
1.5725 0.5123 0.0472
1.5775 0.5857 0.0507
1.5825 0.5124 0.0476
1.5875 0.4804 0.0443
1.5925 0.4952 0.0462
1.5975 0.5082 0.0468
1.6025 0.5106 0.0474
1.6075 0.6630 0.0542
1.6125 0.5627 0.0477
1.6175 0.5701 0.0495
1.6225 0.4776 0.0460
1.6275 0.4444 0.0442
1.6325 0.6149 0.0522
1.6375 0.5953 0.0493
1.6425 0.4824 0.0456
1.6475 0.5774 0.0499
1.6525 0.4707 0.0459
1.6575 0.7061 0.0560
1.6625 0.8473 0.0590
1.6675 1.1002 0.0692
1.6725 2.0798 0.0955
1.6775 3.6174 0.1262
1.6825 5.9035 0.1620
1.6875 8.5969 0.1893
1.6925 8.9011 0.1946
1.6975 7.4350 0.1802
1.7025 4.9622 0.1475
1.7075 3.3237 0.1229
1.7125 2.1741 0.0962
1.7175 1.6710 0.0840
1.7225 1.1882 0.0722
1.7275 0.9511 0.0649
1.7325 0.8735 0.0627
1.7375 0.7825 0.0583
1.7425 0.6800 0.0528
1.7475 0.6101 0.0520
1.7525 0.6945 0.0554
1.7575 0.6618 0.0546
1.7625 0.5555 0.0497
1.7675 0.6095 0.0503
1.7725 0.6741 0.0541
1.7775 0.6559 0.0538
1.7825 0.5470 0.0495
1.7875 0.5644 0.0501
1.7925 0.6505 0.0531
1.7975 0.4906 0.0458
1.8025 0.5720 0.0501
1.8075 0.5924 0.0512
1.8125 0.6382 0.0534
1.8175 0.4696 0.0463
1.8225 0.4629 0.0437
1.8275 0.4754 0.0456
1.8325 0.4714 0.0454
1.8375 0.3893 0.0418
1.8425 0.3709 0.0410
1.8475 0.4627 0.0448
1.8525 0.4871 0.0454
1.8575 0.4536 0.0447
1.8625 0.5225 0.0483
1.8675 0.4822 0.0468
1.8725 0.6016 0.0522
1.8775 0.5585 0.0482
1.8825 0.5365 0.0480
1.8875 0.5157 0.0479
1.8925 0.4319 0.0443
1.8975 0.4685 0.0461
1.9025 0.4555 0.0449
1.9075 0.3734 0.0396
1.9125 0.4017 0.0419
1.9175 0.4662 0.0457
1.9225 0.3999 0.0426
1.9275 0.4057 0.0427
1.9325 0.3508 0.0387
1.9375 0.4152 0.0424
1.9425 0.4054 0.0423
1.9475 0.5140 0.0483
1.9525 0.4730 0.0462
1.9575 0.5000 0.0477
1.9625 0.6162 0.0510
1.9675 0.5763 0.0502
1.9725 0.6900 0.0554
1.9775 0.6730 0.0549
1.9825 0.6045 0.0522
1.9875 0.6158 0.0534
1.9925 0.5355 0.0473
1.9975 0.4758 0.0456
2.0025 0.5756 0.0507
2.0075 0.5247 0.0485
2.0125 0.5821 0.0514
2.0175 0.7114 0.0575
2.0225 0.7678 0.0564
2.0275 0.7283 0.0560
2.0325 0.7611 0.0586
2.0375 0.7127 0.0565
2.0425 0.7098 0.0572
2.0475 0.7200 0.0571
2.0525 0.5050 0.0459
2.0575 0.5176 0.0478
2.0625 0.4497 0.0449
2.0675 0.4049 0.0430
2.0725 0.4098 0.0433
2.0775 0.3852 0.0411
2.0825 0.2977 0.0356
2.0875 0.3522 0.0397
2.0925 0.3157 0.0378
2.0975 0.3954 0.0422
2.1025 0.3740 0.0413
2.1075 0.3574 0.0395
2.1125 0.2557 0.0331
2.1175 0.3836 0.0414
2.1225 0.2801 0.0356
2.1275 0.2700 0.0349
2.1325 0.2438 0.0335
2.1375 0.2891 0.0356
2.1425 0.2857 0.0349
2.1475 0.2751 0.0350
2.1525 0.3593 0.0400
2.1575 0.2198 0.0318
2.1625 0.3313 0.0388
2.1675 0.2573 0.0338
2.1725 0.3085 0.0364
2.1775 0.2232 0.0313
2.1825 0.2572 0.0341
2.1875 0.2666 0.0347
2.1925 0.2860 0.0366
2.1975 0.2160 0.0306
2.2025 0.2530 0.0330
2.2075 0.3023 0.0367
2.2125 0.3257 0.0384
2.2175 0.2532 0.0338
2.2225 0.2870 0.0362
2.2275 0.3109 0.0372
2.2325 0.2738 0.0340
2.2375 0.2186 0.0312
2.2425 0.2531 0.0338
2.2475 0.2702 0.0352
2.2525 0.2484 0.0338
2.2575 0.2460 0.0326
2.2625 0.2024 0.0295
2.2675 0.2208 0.0313
2.2725 0.2110 0.0308
2.2775 0.2587 0.0346
2.2825 0.2340 0.0325
2.2875 0.1720 0.0276
2.2925 0.2090 0.0299
2.2975 0.2663 0.0344
2.3025 0.2586 0.0343
2.3075 0.2166 0.0313
2.3125 0.2883 0.0363
2.3175 0.2139 0.0306
2.3225 0.2046 0.0296
2.3275 0.1874 0.0290
2.3325 0.2279 0.0320
2.3375 0.1893 0.0293
2.3425 0.2161 0.0316
2.3475 0.1911 0.0289
2.3525 0.2031 0.0296
2.3575 0.1624 0.0268
2.3625 0.1902 0.0294
2.3675 0.1781 0.0286
2.3725 0.1723 0.0280
2.3775 0.1777 0.0278
2.3825 0.2192 0.0307
2.3875 0.2281 0.0320
2.3925 0.2117 0.0306
2.3975 0.2288 0.0324
2.4025 0.1807 0.0290
2.4075 0.2021 0.0295
2.4125 0.2052 0.0297
2.4175 0.2118 0.0306
2.4225 0.2421 0.0330
2.4275 0.1688 0.0278
2.4325 0.2355 0.0330
2.4375 0.2377 0.0318
2.4425 0.2114 0.0302
2.4475 0.2469 0.0331
2.4525 0.2321 0.0326
2.4575 0.1992 0.0301
2.4625 0.2631 0.0349
2.4675 0.2306 0.0311
2.4725 0.2459 0.0326
2.4775 0.2835 0.0355
2.4825 0.2515 0.0340
2.4875 0.2302 0.0323
2.4925 0.2170 0.0317
2.4975 0.1870 0.0279
2.5025 0.2405 0.0322
2.5075 0.2273 0.0319
2.5125 0.2529 0.0341
2.5175 0.2021 0.0302
2.5225 0.1851 0.0293
2.5275 0.1796 0.0271
2.5325 0.2133 0.0305
2.5375 0.2876 0.0360
2.5425 0.1918 0.0297
2.5475 0.2548 0.0338
2.5525 0.1983 0.0296
2.5575 0.2485 0.0324
2.5625 0.1951 0.0294
2.5675 0.1748 0.0280
2.5725 0.2093 0.0308
2.5775 0.1810 0.0287
2.5825 0.2027 0.0294
2.5875 0.2045 0.0296
2.5925 0.2083 0.0304
2.5975 0.1851 0.0289
2.6025 0.2172 0.0314
2.6075 0.1890 0.0295
2.6125 0.1882 0.0278
2.6175 0.1656 0.0269
2.6225 0.1743 0.0280
2.6275 0.1440 0.0255
2.6325 0.1356 0.0248
2.6375 0.1599 0.0263
2.6425 0.1352 0.0239
2.6475 0.1456 0.0254
2.6525 0.1242 0.0235
2.6575 0.1649 0.0275
2.6625 0.1465 0.0259
2.6675 0.1104 0.0213
2.6725 0.1266 0.0235
2.6775 0.1452 0.0253
2.6825 0.1232 0.0237
2.6875 0.1038 0.0217
2.6925 0.1360 0.0241
2.6975 0.1194 0.0226
0.2137 0.0156 0.0092
0.2142 0.0306 0.0138
0.2147 0.0240 0.0122
0.2152 0.0375 0.0143
0.2157 0.0223 0.0113
0.2162 0.0285 0.0129
0.2167 0.0246 0.0124
0.2172 0.0213 0.0107
0.2177 0.0050 0.0052
0.2182 0.0176 0.0104
0.2188 0.0237 0.0120
0.2193 0.0268 0.0121
0.2198 0.0254 0.0114
