1.0675 0.7446 0.4315
1.0725 0.6940 0.0996
1.0775 0.7464 0.0921
1.0825 0.7601 0.0851
1.0875 0.5855 0.0651
1.0925 0.7774 0.0735
1.0975 0.6259 0.0640
1.1025 0.6560 0.0623
1.1075 0.5824 0.0541
1.1125 0.5514 0.0539
1.1175 0.6511 0.0565
1.1225 0.7969 0.0598
1.1275 0.8308 0.0592
1.1325 0.7306 0.0562
1.1375 0.6756 0.0541
1.1425 0.7220 0.0535
1.1475 0.8042 0.0578
1.1525 0.7942 0.0583
1.1575 0.7995 0.0571
1.1625 0.8442 0.0588
1.1675 0.7534 0.0560
1.1725 0.9106 0.0622
1.1775 1.0404 0.0645
1.1825 0.8892 0.0605
1.1875 1.0042 0.0644
1.1925 0.8523 0.0600
1.1975 0.9133 0.0598
1.2025 1.0080 0.0640
1.2075 1.0586 0.0667
1.2125 0.9152 0.0621
1.2175 1.0157 0.0630
1.2225 1.0417 0.0656
1.2275 1.0699 0.0666
1.2325 0.9961 0.0655
1.2375 1.1742 0.0673
1.2425 1.1312 0.0684
1.2475 1.1852 0.0709
1.2525 1.1483 0.0690
1.2575 1.2772 0.0718
1.2625 1.1763 0.0697
1.2675 1.2799 0.0732
1.2725 1.2021 0.0705
1.2775 1.3058 0.0716
1.2825 1.2622 0.0724
1.2875 1.4262 0.0782
1.2925 1.4109 0.0764
1.2975 1.4604 0.0766
1.3025 1.3604 0.0750
1.3075 1.3959 0.0767
1.3125 1.4683 0.0789
1.3175 1.3443 0.0726
1.3225 1.5425 0.0803
1.3275 1.5340 0.0805
1.3325 1.5494 0.0817
1.3375 1.7151 0.0825
1.3425 1.6593 0.0833
1.3475 1.8046 0.0871
1.3525 1.7319 0.0857
1.3575 1.6701 0.0819
1.3625 1.9009 0.0892
1.3675 1.8618 0.0884
1.3725 1.8432 0.0895
1.3775 1.9621 0.0902
1.3825 1.8409 0.0863
1.3875 2.0256 0.0930
1.3925 1.9106 0.0906
1.3975 1.9993 0.0930
1.4025 1.8264 0.0848
1.4075 1.9876 0.0912
1.4125 1.8882 0.0902
1.4175 1.8672 0.0897
1.4225 1.9442 0.0887
1.4275 1.9665 0.0903
1.4325 2.1337 0.0959
1.4375 2.0512 0.0934
1.4425 2.3219 0.1005
1.4475 2.1417 0.0924
1.4525 2.0670 0.0938
1.4575 2.1957 0.0975
1.4625 2.0089 0.0937
1.4675 2.0702 0.0923
1.4725 2.1416 0.0943
1.4775 2.0697 0.0945
1.4825 1.7718 0.0876
1.4875 1.9434 0.0921
1.4925 1.9483 0.0888
1.4975 2.1009 0.0940
1.5025 1.7300 0.0867
1.5075 1.8628 0.0906
1.5125 1.8410 0.0878
1.5175 1.8633 0.0879
1.5225 1.8331 0.0885
1.5275 1.8162 0.0889
1.5325 1.7105 0.0868
1.5375 1.7321 0.0848
1.5425 1.7455 0.0851
1.5475 1.6717 0.0856
1.5525 1.6409 0.0839
1.5575 1.6744 0.0863
1.5625 1.6304 0.0817
1.5675 1.6030 0.0822
1.5725 1.6201 0.0839
1.5775 1.4776 0.0805
1.5825 1.4905 0.0812
1.5875 1.5089 0.0785
1.5925 1.4172 0.0782
1.5975 1.5510 0.0818
1.6025 1.4581 0.0801
1.6075 1.4730 0.0807
1.6125 1.4252 0.0760
1.6175 1.4979 0.0802
1.6225 1.4247 0.0794
1.6275 1.4089 0.0788
1.6325 1.4074 0.0789
1.6375 1.3721 0.0748
1.6425 1.4480 0.0790
1.6475 1.2940 0.0747
1.6525 1.3010 0.0764
1.6575 1.1869 0.0726
1.6625 1.0939 0.0671
1.6675 1.1915 0.0720
1.6725 1.1888 0.0722
1.6775 1.2594 0.0745
1.6825 1.1687 0.0721
1.6875 1.1798 0.0701
1.6925 1.1880 0.0711
1.6975 1.1004 0.0693
1.7025 1.1624 0.0714
1.7075 1.0410 0.0688
1.7125 0.9396 0.0632
1.7175 1.0427 0.0663
1.7225 0.9119 0.0632
1.7275 0.9165 0.0637
1.7325 0.9089 0.0640
1.7375 0.9865 0.0655
1.7425 0.9708 0.0631
1.7475 0.9644 0.0653
1.7525 0.9916 0.0662
1.7575 0.9995 0.0671
1.7625 0.8747 0.0623
1.7675 0.8174 0.0582
1.7725 0.9388 0.0639
1.7775 0.8500 0.0612
1.7825 0.7574 0.0583
1.7875 0.7782 0.0588
1.7925 0.8589 0.0610
1.7975 0.8095 0.0588
1.8025 0.8648 0.0616
1.8075 0.8084 0.0598
1.8125 0.7360 0.0573
1.8175 0.7350 0.0579
1.8225 0.7563 0.0559
1.8275 0.7548 0.0574
1.8325 0.7378 0.0568
1.8375 0.6459 0.0538
1.8425 0.6832 0.0556
1.8475 0.7402 0.0566
1.8525 0.6824 0.0538
1.8575 0.7090 0.0559
1.8625 0.7722 0.0587
1.8675 0.7141 0.0570
1.8725 0.8144 0.0607
1.8775 0.6336 0.0514
1.8825 0.6436 0.0526
1.8875 0.6358 0.0532
1.8925 0.5684 0.0508
1.8975 0.6373 0.0538
1.9025 0.7169 0.0563
1.9075 0.7181 0.0549
1.9125 0.6602 0.0537
1.9175 0.6317 0.0532
1.9225 0.5870 0.0517
1.9275 0.6042 0.0522
1.9325 0.6970 0.0546
1.9375 0.5843 0.0503
1.9425 0.6208 0.0523
1.9475 0.5459 0.0498
1.9525 0.5498 0.0498
1.9575 0.6043 0.0524
1.9625 0.5196 0.0468
1.9675 0.6076 0.0515
1.9725 0.6097 0.0521
1.9775 0.5425 0.0493
1.9825 0.6223 0.0529
1.9875 0.5279 0.0494
1.9925 0.4937 0.0454
1.9975 0.5681 0.0498
2.0025 0.5308 0.0487
2.0075 0.5873 0.0513
2.0125 0.4362 0.0445
2.0175 0.4927 0.0479
2.0225 0.4814 0.0447
2.0275 0.4612 0.0446
2.0325 0.5217 0.0485
2.0375 0.4031 0.0425
2.0425 0.4792 0.0470
2.0475 0.4295 0.0441
2.0525 0.4876 0.0451
2.0575 0.4737 0.0457
2.0625 0.4187 0.0433
2.0675 0.5237 0.0489
2.0725 0.4007 0.0428
2.0775 0.4813 0.0459
2.0825 0.4714 0.0448
2.0875 0.4051 0.0425
2.0925 0.3701 0.0409
2.0975 0.4678 0.0459
2.1025 0.4287 0.0442
2.1075 0.4314 0.0434
2.1125 0.3671 0.0396
2.1175 0.3611 0.0402
2.1225 0.3661 0.0407
2.1275 0.4948 0.0472
2.1325 0.4420 0.0451
2.1375 0.3726 0.0404
2.1425 0.3370 0.0380
2.1475 0.4396 0.0442
2.1525 0.4487 0.0447
2.1575 0.3706 0.0412
2.1625 0.3631 0.0406
2.1675 0.4354 0.0440
2.1725 0.3515 0.0388
2.1775 0.4209 0.0430
2.1825 0.3661 0.0407
2.1875 0.4070 0.0429
2.1925 0.3377 0.0398
2.1975 0.3633 0.0397
2.2025 0.3817 0.0405
2.2075 0.4263 0.0435
2.2125 0.3204 0.0381
2.2175 0.3208 0.0381
2.2225 0.2691 0.0351
2.2275 0.3464 0.0392
2.2325 0.3665 0.0393
2.2375 0.4280 0.0437
2.2425 0.3565 0.0402
2.2475 0.2799 0.0358
2.2525 0.3546 0.0404
2.2575 0.3200 0.0372
2.2625 0.3016 0.0361
2.2675 0.3980 0.0420
2.2725 0.2878 0.0360
2.2775 0.3005 0.0373
2.2825 0.3285 0.0385
2.2875 0.3404 0.0388
2.2925 0.3541 0.0389
2.2975 0.3197 0.0377
2.3025 0.3676 0.0409
2.3075 0.2536 0.0339
2.3125 0.3474 0.0398
2.3175 0.2886 0.0356
2.3225 0.3155 0.0368
2.3275 0.2851 0.0358
2.3325 0.3080 0.0372
2.3375 0.2987 0.0368
2.3425 0.2567 0.0344
2.3475 0.3047 0.0365
2.3525 0.2844 0.0351
2.3575 0.2460 0.0329
2.3625 0.2675 0.0349
2.3675 0.2836 0.0361
2.3725 0.2584 0.0343
2.3775 0.3163 0.0371
2.3825 0.3612 0.0395
2.3875 0.3263 0.0383
2.3925 0.3265 0.0380
2.3975 0.2931 0.0367
2.4025 0.3293 0.0391
2.4075 0.2926 0.0355
2.4125 0.2997 0.0359
2.4175 0.2824 0.0353
2.4225 0.3688 0.0408
2.4275 0.3113 0.0378
2.4325 0.2864 0.0364
2.4375 0.2973 0.0356
2.4425 0.3240 0.0375
2.4475 0.3091 0.0370
2.4525 0.2826 0.0359
2.4575 0.3624 0.0406
2.4625 0.2402 0.0333
2.4675 0.2637 0.0333
2.4725 0.3242 0.0375
2.4775 0.2972 0.0363
2.4825 0.2287 0.0324
2.4875 0.2570 0.0341
2.4925 0.2537 0.0343
2.4975 0.2326 0.0311
2.5025 0.3267 0.0375
2.5075 0.4059 0.0426
2.5125 0.2298 0.0325
2.5175 0.2425 0.0331
2.5225 0.2270 0.0325
2.5275 0.2124 0.0295
2.5325 0.2831 0.0352
2.5375 0.2336 0.0324
2.5425 0.2562 0.0343
2.5475 0.2727 0.0350
2.5525 0.2689 0.0345
2.5575 0.2526 0.0326
2.5625 0.2620 0.0341
2.5675 0.2334 0.0323
2.5725 0.2684 0.0349
2.5775 0.2900 0.0363
2.5825 0.2871 0.0350
2.5875 0.1792 0.0277
2.5925 0.1731 0.0277
2.5975 0.2890 0.0362
2.6025 0.2578 0.0342
2.6075 0.2717 0.0354
2.6125 0.2580 0.0325
2.6175 0.1787 0.0279
2.6225 0.1611 0.0269
2.6275 0.2475 0.0334
2.6325 0.1762 0.0282
2.6375 0.1772 0.0277
2.6425 0.1989 0.0290
2.6475 0.2213 0.0313
2.6525 0.1554 0.0263
2.6575 0.1740 0.0282
2.6625 0.1419 0.0255
2.6675 0.1557 0.0253
2.6725 0.2054 0.0299
2.6775 0.1851 0.0286
2.6825 0.1736 0.0282
2.6875 0.1036 0.0217
2.6925 0.1360 0.0241
2.6975 0.1794 0.0277
0.2137 0.0156 0.0092
0.2142 0.0306 0.0138
0.2147 0.0240 0.0122
0.2152 0.0375 0.0143
0.2157 0.0223 0.0113
0.2162 0.0285 0.0129
0.2167 0.0246 0.0124
0.2172 0.0213 0.0107
0.2177 0.0050 0.0052
0.2182 0.0176 0.0104
0.2188 0.0237 0.0120
0.2193 0.0268 0.0121
0.2198 0.0254 0.0114
