1.0675 -0.0004 1.0000
1.0725 0.2122 0.0551
1.0775 0.1696 0.0439
1.0825 0.1801 0.0414
1.0875 0.1658 0.0347
1.0925 0.2009 0.0373
1.0975 0.2673 0.0418
1.1025 0.1889 0.0334
1.1075 0.1454 0.0270
1.1125 0.1731 0.0302
1.1175 0.2348 0.0339
1.1225 0.1652 0.0272
1.1275 0.1682 0.0266
1.1325 0.1985 0.0293
1.1375 0.2204 0.0309
1.1425 0.2814 0.0334
1.1475 0.2735 0.0337
1.1525 0.3755 0.0401
1.1575 0.4364 0.0422
1.1625 0.3847 0.0397
1.1675 0.3536 0.0384
1.1725 0.2595 0.0332
1.1775 0.3318 0.0364
1.1825 0.2631 0.0329
1.1875 0.3594 0.0385
1.1925 0.3457 0.0382
1.1975 0.4309 0.0411
1.2025 0.2642 0.0328
1.2075 0.3064 0.0359
1.2125 0.2442 0.0321
1.2175 0.2380 0.0305
1.2225 0.2473 0.0320
1.2275 0.2070 0.0293
1.2325 0.2626 0.0336
1.2375 0.3318 0.0358
1.2425 0.3715 0.0392
1.2475 0.3385 0.0379
1.2525 0.3233 0.0366
1.2575 0.3380 0.0369
1.2625 0.4002 0.0407
1.2675 0.4304 0.0424
1.2725 0.4043 0.0409
1.2775 0.4154 0.0404
1.2825 0.3237 0.0366
1.2875 0.3649 0.0396
1.2925 0.3959 0.0404
1.2975 0.5437 0.0467
1.3025 0.7630 0.0561
1.3075 1.1128 0.0685
1.3125 0.8131 0.0587
1.3175 0.7403 0.0539
1.3225 1.0372 0.0659
1.3275 2.3566 0.0997
1.3325 3.3021 0.1193
1.3375 2.1161 0.0916
1.3425 1.2243 0.0716
1.3475 0.5835 0.0495
1.3525 0.5925 0.0501
1.3575 0.6545 0.0513
1.3625 0.9712 0.0637
1.3675 1.7733 0.0863
1.3725 2.4083 0.1023
1.3775 2.0248 0.0917
1.3825 1.0806 0.0661
1.3875 0.6835 0.0540
1.3925 0.5452 0.0484
1.3975 0.4716 0.0452
1.4025 0.4839 0.0436
1.4075 0.5644 0.0486
1.4125 0.6507 0.0530
1.4175 1.1985 0.0719
1.4225 3.8523 0.1249
1.4275 7.8075 0.1800
1.4325 6.4753 0.1671
1.4375 2.7794 0.1088
1.4425 1.1733 0.0714
1.4475 0.6283 0.0500
1.4525 0.5947 0.0503
1.4575 0.5405 0.0484
1.4625 0.5237 0.0478
1.4675 0.5799 0.0489
1.4725 0.4893 0.0451
1.4775 0.5169 0.0472
1.4825 0.5327 0.0480
1.4875 0.5805 0.0503
1.4925 0.4532 0.0428
1.4975 0.5542 0.0483
1.5025 0.6734 0.0541
1.5075 0.6468 0.0534
1.5125 0.6647 0.0527
1.5175 0.7638 0.0563
1.5225 0.7945 0.0583
1.5275 1.1347 0.0702
1.5325 2.2171 0.0988
1.5375 3.1430 0.1142
1.5425 2.5846 0.1036
1.5475 1.4502 0.0798
1.5525 0.8314 0.0597
1.5575 0.5594 0.0499
1.5625 0.5320 0.0467
1.5675 0.5906 0.0499
1.5725 0.5032 0.0468
1.5775 0.5130 0.0474
1.5825 0.4991 0.0470
1.5875 0.4639 0.0435
1.5925 0.4429 0.0437
1.5975 0.5251 0.0476
1.6025 0.5547 0.0494
1.6075 0.6457 0.0535
1.6125 0.6154 0.0499
1.6175 0.5445 0.0483
1.6225 0.4334 0.0438
1.6275 0.5279 0.0482
1.6325 0.4864 0.0464
1.6375 0.5466 0.0472
1.6425 0.4652 0.0448
1.6475 0.5214 0.0474
1.6525 0.5377 0.0491
1.6575 0.5733 0.0505
1.6625 0.9384 0.0621
1.6675 1.3610 0.0769
1.6725 2.3860 0.1023
1.6775 4.2486 0.1368
1.6825 6.7601 0.1733
1.6875 8.7679 0.1911
1.6925 8.8715 0.1943
1.6975 6.4019 0.1672
1.7025 4.3567 0.1382
1.7075 3.0419 0.1176
1.7125 2.0804 0.0941
1.7175 1.5954 0.0820
1.7225 1.2579 0.0743
1.7275 1.0577 0.0684
1.7325 0.8821 0.0630
1.7375 0.6781 0.0543
1.7425 0.6637 0.0522
1.7475 0.7742 0.0585
1.7525 0.6547 0.0538
1.7575 0.7070 0.0564
1.7625 0.5506 0.0495
1.7675 0.6178 0.0506
1.7725 0.5775 0.0501
1.7775 0.6077 0.0517
1.7825 0.5023 0.0475
1.7875 0.6801 0.0550
1.7925 0.5947 0.0507
1.7975 0.5759 0.0496
1.8025 0.5289 0.0482
1.8075 0.5119 0.0476
1.8125 0.5709 0.0505
1.8175 0.5887 0.0518
1.8225 0.5615 0.0482
1.8275 0.5005 0.0467
1.8325 0.4896 0.0462
1.8375 0.4254 0.0437
1.8425 0.4656 0.0459
1.8475 0.4286 0.0431
1.8525 0.5001 0.0460
1.8575 0.5325 0.0484
1.8625 0.6028 0.0519
1.8675 0.6228 0.0532
1.8725 0.5745 0.0510
1.8775 0.5874 0.0495
1.8825 0.5794 0.0499
1.8875 0.5732 0.0505
1.8925 0.4859 0.0470
1.8975 0.4775 0.0466
1.9025 0.4069 0.0424
1.9075 0.4832 0.0451
1.9125 0.4672 0.0452
1.9175 0.4080 0.0428
1.9225 0.4360 0.0445
1.9275 0.4868 0.0468
1.9325 0.4835 0.0455
1.9375 0.4547 0.0444
1.9425 0.4584 0.0449
1.9475 0.4864 0.0470
1.9525 0.4816 0.0466
1.9575 0.4451 0.0450
1.9625 0.4514 0.0436
1.9675 0.5858 0.0506
1.9725 0.6542 0.0539
1.9775 0.6769 0.0551
1.9825 0.5722 0.0508
1.9875 0.5093 0.0486
1.9925 0.5186 0.0466
1.9975 0.4892 0.0462
2.0025 0.4912 0.0468
2.0075 0.6407 0.0536
2.0125 0.6815 0.0557
2.0175 0.7440 0.0588
2.0225 0.6886 0.0535
2.0275 0.7545 0.0570
2.0325 0.8605 0.0623
2.0375 0.6540 0.0542
2.0425 0.6313 0.0539
2.0475 0.6378 0.0537
2.0525 0.5294 0.0470
2.0575 0.5971 0.0513
2.0625 0.4371 0.0443
2.0675 0.3464 0.0398
2.0725 0.3551 0.0403
2.0775 0.3588 0.0397
2.0825 0.4030 0.0414
2.0875 0.3600 0.0401
2.0925 0.3614 0.0404
2.0975 0.3555 0.0400
2.1025 0.3376 0.0393
2.1075 0.3006 0.0362
2.1125 0.3198 0.0370
2.1175 0.2806 0.0354
2.1225 0.3072 0.0373
2.1275 0.3237 0.0382
2.1325 0.2942 0.0368
2.1375 0.2581 0.0336
2.1425 0.2900 0.0352
2.1475 0.2397 0.0326
2.1525 0.3417 0.0390
2.1575 0.3024 0.0372
2.1625 0.2449 0.0334
2.1675 0.2350 0.0323
2.1725 0.2353 0.0318
2.1775 0.2142 0.0307
2.1825 0.2710 0.0350
2.1875 0.2124 0.0310
2.1925 0.2203 0.0322
2.1975 0.2292 0.0315
2.2025 0.2701 0.0340
2.2075 0.2840 0.0355
2.2125 0.3526 0.0399
2.2175 0.4115 0.0431
2.2225 0.2371 0.0329
2.2275 0.2929 0.0361
2.2325 0.2611 0.0332
2.2375 0.2718 0.0348
2.2425 0.2572 0.0341
2.2475 0.2059 0.0307
2.2525 0.2574 0.0344
2.2575 0.2764 0.0346
2.2625 0.2240 0.0311
2.2675 0.2829 0.0354
2.2725 0.2923 0.0363
2.2775 0.2449 0.0337
2.2825 0.2203 0.0315
2.2875 0.1722 0.0276
2.2925 0.2430 0.0322
2.2975 0.2395 0.0326
2.3025 0.2359 0.0327
2.3075 0.2759 0.0353
2.3125 0.2745 0.0354
2.3175 0.2534 0.0333
2.3225 0.1750 0.0274
2.3275 0.2051 0.0303
2.3325 0.2993 0.0366
2.3375 0.2033 0.0303
2.3425 0.2158 0.0315
2.3475 0.2219 0.0311
2.3525 0.2243 0.0312
2.3575 0.1759 0.0278
2.3625 0.1767 0.0283
2.3675 0.2103 0.0311
2.3725 0.1722 0.0280
2.3775 0.1472 0.0253
2.3825 0.1243 0.0231
2.3875 0.1741 0.0279
2.3925 0.1852 0.0286
2.3975 0.1967 0.0300
2.4025 0.1901 0.0297
2.4075 0.2018 0.0295
2.4125 0.2055 0.0297
2.4175 0.2029 0.0300
2.4225 0.2244 0.0318
2.4275 0.1691 0.0278
2.4325 0.2076 0.0310
2.4375 0.2036 0.0294
2.4425 0.2502 0.0329
2.4475 0.2558 0.0336
2.4525 0.2139 0.0313
2.4575 0.1993 0.0301
2.4625 0.2494 0.0340
2.4675 0.2138 0.0300
2.4725 0.2808 0.0349
2.4775 0.2793 0.0352
2.4825 0.2607 0.0346
2.4875 0.2571 0.0341
2.4925 0.2539 0.0343
2.4975 0.1993 0.0288
2.5025 0.1975 0.0292
2.5075 0.1959 0.0296
2.5125 0.2297 0.0325
2.5175 0.2201 0.0315
2.5225 0.2780 0.0360
2.5275 0.2369 0.0312
2.5325 0.2396 0.0323
2.5375 0.1660 0.0273
2.5425 0.2744 0.0355
2.5475 0.2144 0.0310
2.5525 0.2246 0.0315
2.5575 0.1850 0.0279
2.5625 0.1862 0.0288
2.5675 0.1565 0.0265
2.5725 0.2000 0.0301
2.5775 0.1628 0.0272
2.5825 0.2028 0.0294
2.5875 0.1620 0.0264
2.5925 0.2258 0.0317
2.5975 0.2024 0.0303
2.6025 0.2358 0.0327
2.6075 0.2025 0.0305
2.6125 0.1883 0.0278
2.6175 0.2180 0.0309
2.6225 0.1073 0.0219
2.6275 0.1259 0.0238
2.6325 0.1534 0.0263
2.6375 0.1728 0.0274
2.6425 0.1818 0.0278
2.6475 0.1545 0.0261
2.6525 0.2043 0.0301
2.6575 0.1144 0.0229
2.6625 0.1698 0.0279
2.6675 0.1638 0.0259
2.6725 0.1657 0.0269
2.6775 0.1364 0.0245
2.6825 0.1506 0.0262
2.6875 0.1536 0.0264
2.6925 0.1530 0.0255
2.6975 0.0894 0.0195
0.2137 0.0156 0.0092
0.2142 0.0306 0.0138
0.2147 0.0240 0.0122
0.2152 0.0375 0.0143
0.2157 0.0223 0.0113
0.2162 0.0285 0.0129
0.2167 0.0246 0.0124
0.2172 0.0213 0.0107
0.2177 0.0050 0.0052
0.2182 0.0176 0.0104
0.2188 0.0237 0.0120
0.2193 0.0268 0.0121
0.2198 0.0254 0.0114
