1.0675 0.9899 0.4975
1.0725 0.5651 0.0899
1.0775 0.6221 0.0841
1.0825 0.4840 0.0679
1.0875 0.5347 0.0622
1.0925 0.6592 0.0677
1.0975 0.7311 0.0691
1.1025 0.7447 0.0664
1.1075 0.7075 0.0596
1.1125 0.7676 0.0636
1.1175 0.7193 0.0594
1.1225 0.6713 0.0549
1.1275 0.7624 0.0567
1.1325 0.7222 0.0559
1.1375 0.8137 0.0594
1.1425 0.9001 0.0598
1.1475 0.8046 0.0578
1.1525 0.7769 0.0576
1.1575 0.8488 0.0589
1.1625 0.9181 0.0613
1.1675 0.8575 0.0598
1.1725 0.8938 0.0617
1.1775 0.8723 0.0591
1.1825 0.9258 0.0617
1.1875 0.8927 0.0607
1.1925 0.9239 0.0624
1.1975 0.9057 0.0596
1.2025 1.0283 0.0647
1.2075 0.9413 0.0629
1.2125 1.0543 0.0667
1.2175 1.0586 0.0643
1.2225 1.2070 0.0706
1.2275 1.1147 0.0680
1.2325 1.0946 0.0687
1.2375 1.1080 0.0654
1.2425 1.2061 0.0706
1.2475 1.3257 0.0749
1.2525 1.2982 0.0734
1.2575 1.3009 0.0724
1.2625 1.2714 0.0725
1.2675 1.3131 0.0741
1.2725 1.2842 0.0728
1.2775 1.3795 0.0736
1.2825 1.3830 0.0758
1.2875 1.3324 0.0756
1.2925 1.4317 0.0769
1.2975 1.2660 0.0713
1.3025 1.5535 0.0801
1.3075 1.4976 0.0795
1.3125 1.4778 0.0791
1.3175 1.5045 0.0768
1.3225 1.5797 0.0813
1.3275 1.6489 0.0834
1.3325 1.7061 0.0858
1.3375 1.7556 0.0835
1.3425 1.7231 0.0849
1.3475 1.6961 0.0844
1.3525 1.6225 0.0829
1.3575 1.9109 0.0876
1.3625 1.7590 0.0858
1.3675 1.7020 0.0846
1.3725 1.8738 0.0903
1.3775 1.9466 0.0899
1.3825 1.8498 0.0865
1.3875 2.0001 0.0925
1.3925 2.0316 0.0934
1.3975 2.1331 0.0961
1.4025 1.9413 0.0874
1.4075 2.0175 0.0919
1.4125 1.9057 0.0906
1.4175 1.8667 0.0897
1.4225 1.9000 0.0877
1.4275 2.0086 0.0913
1.4325 2.1085 0.0953
1.4375 1.9402 0.0909
1.4425 2.0175 0.0937
1.4475 1.9236 0.0875
1.4525 1.8497 0.0887
1.4575 2.1000 0.0953
1.4625 1.9829 0.0931
1.4675 2.0089 0.0909
1.4725 2.0865 0.0930
1.4775 1.8451 0.0892
1.4825 2.0534 0.0943
1.4875 1.9008 0.0911
1.4925 1.8302 0.0861
1.4975 1.9451 0.0904
1.5025 1.9306 0.0916
1.5075 1.8717 0.0908
1.5125 1.7903 0.0865
1.5175 1.7231 0.0846
1.5225 1.6062 0.0829
1.5275 1.8344 0.0893
1.5325 1.6443 0.0851
1.5375 1.6988 0.0840
1.5425 1.5751 0.0808
1.5475 1.7504 0.0876
1.5525 1.5377 0.0812
1.5575 1.6350 0.0852
1.5625 1.5397 0.0794
1.5675 1.5357 0.0805
1.5725 1.6290 0.0842
1.5775 1.4153 0.0788
1.5825 1.5571 0.0830
1.5875 1.3088 0.0731
1.5925 1.4642 0.0794
1.5975 1.4567 0.0792
1.6025 1.3968 0.0784
1.6075 1.3186 0.0764
1.6125 1.4417 0.0764
1.6175 1.4338 0.0784
1.6225 1.3892 0.0784
1.6275 1.3469 0.0770
1.6325 1.3412 0.0770
1.6375 1.3670 0.0747
1.6425 1.2374 0.0730
1.6475 1.2417 0.0732
1.6525 1.1527 0.0719
1.6575 1.3161 0.0765
1.6625 1.1766 0.0696
1.6675 1.2655 0.0742
1.6725 1.0747 0.0687
1.6775 1.1631 0.0716
1.6825 1.1021 0.0700
1.6875 1.1789 0.0701
1.6925 1.1031 0.0685
1.6975 1.0294 0.0670
1.7025 0.9646 0.0650
1.7075 1.0411 0.0688
1.7125 0.9699 0.0642
1.7175 0.9959 0.0648
1.7225 1.0791 0.0688
1.7275 1.0299 0.0675
1.7325 1.0264 0.0680
1.7375 0.9296 0.0636
1.7425 0.7579 0.0557
1.7475 0.8891 0.0627
1.7525 1.0218 0.0672
1.7575 0.7876 0.0596
1.7625 0.9464 0.0649
1.7675 0.9003 0.0611
1.7725 0.8690 0.0615
1.7775 0.9073 0.0632
1.7825 0.9773 0.0662
1.7875 0.8089 0.0600
1.7925 0.7551 0.0572
1.7975 0.6392 0.0523
1.8025 0.8646 0.0616
1.8075 0.8093 0.0598
1.8125 0.8205 0.0605
1.8175 0.7588 0.0589
1.8225 0.7142 0.0543
1.8275 0.7196 0.0561
1.8325 0.8859 0.0622
1.8375 0.7666 0.0586
1.8425 0.8145 0.0607
1.8475 0.7354 0.0564
1.8525 0.6484 0.0524
1.8575 0.7398 0.0571
1.8625 0.7323 0.0572
1.8675 0.7229 0.0573
1.8725 0.7463 0.0581
1.8775 0.6714 0.0529
1.8825 0.6869 0.0543
1.8875 0.6140 0.0522
1.8925 0.7000 0.0564
1.8975 0.5776 0.0512
1.9025 0.7042 0.0558
1.9075 0.7140 0.0548
1.9125 0.7251 0.0563
1.9175 0.6542 0.0542
1.9225 0.6320 0.0536
1.9275 0.6624 0.0546
1.9325 0.5989 0.0506
1.9375 0.6237 0.0520
1.9425 0.5596 0.0497
1.9475 0.5732 0.0510
1.9525 0.6038 0.0522
1.9575 0.6408 0.0540
1.9625 0.5997 0.0503
1.9675 0.4891 0.0462
1.9725 0.5384 0.0489
1.9775 0.5477 0.0496
1.9825 0.4684 0.0459
1.9875 0.5091 0.0485
1.9925 0.4642 0.0441
1.9975 0.6115 0.0517
2.0025 0.6294 0.0530
2.0075 0.5023 0.0475
2.0125 0.4859 0.0470
2.0175 0.4507 0.0458
2.0225 0.4811 0.0447
2.0275 0.5170 0.0472
2.0325 0.5449 0.0495
2.0375 0.5293 0.0487
2.0425 0.5389 0.0498
2.0475 0.4708 0.0462
2.0525 0.5801 0.0492
2.0575 0.5002 0.0469
2.0625 0.5078 0.0477
2.0675 0.4056 0.0430
2.0725 0.5108 0.0483
2.0775 0.4291 0.0434
2.0825 0.4673 0.0446
2.0875 0.4634 0.0455
2.0925 0.3934 0.0422
2.0975 0.4142 0.0432
2.1025 0.4794 0.0468
2.1075 0.3923 0.0414
2.1125 0.4269 0.0427
2.1175 0.5220 0.0483
2.1225 0.4160 0.0434
2.1275 0.3870 0.0418
2.1325 0.4145 0.0437
2.1375 0.3460 0.0390
2.1425 0.3964 0.0412
2.1475 0.4262 0.0435
2.1525 0.3151 0.0374
2.1575 0.4029 0.0430
2.1625 0.4128 0.0433
2.1675 0.3776 0.0410
2.1725 0.3856 0.0407
2.1775 0.3463 0.0390
2.1825 0.3119 0.0376
2.1875 0.3344 0.0389
2.1925 0.3236 0.0390
2.1975 0.3025 0.0362
2.2025 0.3685 0.0398
2.2075 0.4003 0.0422
2.2125 0.3844 0.0417
2.2175 0.3392 0.0392
2.2225 0.3832 0.0418
2.2275 0.3596 0.0400
2.2325 0.3667 0.0393
2.2375 0.2984 0.0365
2.2425 0.3391 0.0392
2.2475 0.3302 0.0389
2.2525 0.3083 0.0377
2.2575 0.4108 0.0422
2.2625 0.3016 0.0361
2.2675 0.3536 0.0396
2.2725 0.3461 0.0395
2.2775 0.3790 0.0419
2.2825 0.3511 0.0398
2.2875 0.2604 0.0339
2.2925 0.2904 0.0352
2.2975 0.2887 0.0358
2.3025 0.3174 0.0380
2.3075 0.3028 0.0370
2.3125 0.3154 0.0379
2.3175 0.3806 0.0409
2.3225 0.3200 0.0371
2.3275 0.2810 0.0355
2.3325 0.3086 0.0372
2.3375 0.3571 0.0402
2.3425 0.3534 0.0404
2.3475 0.2960 0.0360
2.3525 0.3284 0.0377
2.3575 0.3435 0.0389
2.3625 0.3403 0.0393
2.3675 0.2793 0.0358
2.3725 0.3450 0.0396
2.3775 0.3474 0.0389
2.3825 0.2751 0.0344
2.3875 0.3309 0.0385
2.3925 0.2651 0.0343
2.3975 0.3020 0.0372
2.4025 0.3207 0.0386
2.4075 0.2539 0.0331
2.4125 0.2955 0.0356
2.4175 0.2471 0.0331
2.4225 0.2382 0.0328
2.4275 0.3390 0.0394
2.4325 0.3281 0.0390
2.4375 0.2462 0.0324
2.4425 0.2762 0.0346
2.4475 0.2909 0.0359
2.4525 0.2457 0.0335
2.4575 0.2720 0.0352
2.4625 0.2590 0.0346
2.4675 0.2722 0.0338
2.4725 0.2806 0.0349
2.4775 0.3189 0.0376
2.4825 0.2880 0.0363
2.4875 0.3336 0.0389
2.4925 0.3093 0.0378
2.4975 0.3496 0.0382
2.5025 0.3011 0.0360
2.5075 0.2983 0.0365
2.5125 0.2299 0.0325
2.5175 0.2066 0.0305
2.5225 0.2689 0.0354
2.5275 0.2573 0.0325
2.5325 0.2568 0.0335
2.5375 0.2559 0.0340
2.5425 0.2930 0.0367
2.5475 0.2861 0.0358
2.5525 0.2732 0.0348
2.5575 0.2780 0.0342
2.5625 0.2352 0.0323
2.5675 0.2285 0.0320
2.5725 0.1958 0.0298
2.5775 0.2582 0.0343
2.5825 0.2489 0.0325
2.5875 0.2436 0.0323
2.5925 0.3104 0.0371
2.5975 0.2343 0.0326
2.6025 0.2216 0.0317
2.6075 0.2767 0.0357
2.6125 0.2416 0.0315
2.6175 0.1655 0.0269
2.6225 0.1882 0.0291
2.6275 0.1934 0.0295
2.6325 0.1942 0.0296
2.6375 0.2076 0.0300
2.6425 0.1989 0.0290
2.6475 0.2254 0.0316
2.6525 0.2132 0.0308
2.6575 0.1880 0.0294
2.6625 0.1511 0.0263
2.6675 0.1595 0.0256
2.6725 0.1527 0.0258
2.6775 0.1760 0.0278
2.6825 0.1461 0.0258
2.6875 0.1899 0.0293
2.6925 0.1573 0.0259
2.6975 0.1794 0.0277
0.2137 0.0156 0.0092
0.2142 0.0306 0.0138
0.2147 0.0240 0.0122
0.2152 0.0375 0.0143
0.2157 0.0223 0.0113
0.2162 0.0285 0.0129
0.2167 0.0246 0.0124
0.2172 0.0213 0.0107
0.2177 0.0050 0.0052
0.2182 0.0176 0.0104
0.2188 0.0237 0.0120
0.2193 0.0268 0.0121
0.2198 0.0254 0.0114
