1.0675 0.2478 0.2489
1.0725 0.1694 0.0492
1.0775 0.2261 0.0507
1.0825 0.1707 0.0403
1.0875 0.1657 0.0347
1.0925 0.1592 0.0332
1.0975 0.2017 0.0363
1.1025 0.1950 0.0340
1.1075 0.1803 0.0301
1.1125 0.2417 0.0357
1.1175 0.2348 0.0339
1.1225 0.2144 0.0310
1.1275 0.1850 0.0279
1.1325 0.2247 0.0312
1.1375 0.1944 0.0290
1.1425 0.3092 0.0350
1.1475 0.2651 0.0332
1.1525 0.3969 0.0412
1.1575 0.4528 0.0430
1.1625 0.3768 0.0393
1.1675 0.2994 0.0353
1.1725 0.3190 0.0368
1.1775 0.2199 0.0297
1.1825 0.3164 0.0361
1.1875 0.2972 0.0350
1.1925 0.4388 0.0430
1.1975 0.3998 0.0396
1.2025 0.2925 0.0345
1.2075 0.2181 0.0303
1.2125 0.2276 0.0310
1.2175 0.2339 0.0302
1.2225 0.1650 0.0261
1.2275 0.3230 0.0366
1.2325 0.2412 0.0322
1.2375 0.2662 0.0321
1.2425 0.2307 0.0309
1.2475 0.3303 0.0374
1.2525 0.3104 0.0359
1.2575 0.3178 0.0358
1.2625 0.3175 0.0362
1.2675 0.4766 0.0447
1.2725 0.4956 0.0453
1.2775 0.4308 0.0411
1.2825 0.3317 0.0371
1.2875 0.3429 0.0384
1.2925 0.4165 0.0415
1.2975 0.4714 0.0435
1.3025 0.5976 0.0497
1.3075 0.9099 0.0620
1.3125 0.9614 0.0638
1.3175 0.6938 0.0522
1.3225 0.8738 0.0605
1.3275 1.7329 0.0855
1.3325 3.0317 0.1143
1.3375 2.6463 0.1025
1.3425 1.3578 0.0754
1.3475 0.8098 0.0583
1.3525 0.5758 0.0494
1.3575 0.5656 0.0477
1.3625 0.7575 0.0563
1.3675 1.2901 0.0736
1.3725 2.2306 0.0985
1.3775 2.1789 0.0951
1.3825 1.2223 0.0703
1.3875 0.7050 0.0549
1.3925 0.6223 0.0517
1.3975 0.5490 0.0488
1.4025 0.4525 0.0422
1.4075 0.5521 0.0481
1.4125 0.6633 0.0535
1.4175 0.8881 0.0619
1.4225 2.5558 0.1017
1.4275 7.2648 0.1736
1.4325 7.2465 0.1767
1.4375 3.8560 0.1281
1.4425 1.2776 0.0745
1.4475 0.6881 0.0524
1.4525 0.5015 0.0462
1.4575 0.6060 0.0512
1.4625 0.5106 0.0472
1.4675 0.5181 0.0462
1.4725 0.4892 0.0451
1.4775 0.4350 0.0433
1.4825 0.5716 0.0497
1.4875 0.5675 0.0498
1.4925 0.5304 0.0463
1.4975 0.5790 0.0493
1.5025 0.5602 0.0494
1.5075 0.6297 0.0527
1.5125 0.7152 0.0547
1.5175 0.7925 0.0573
1.5225 0.7986 0.0584
1.5275 0.9472 0.0642
1.5325 1.7316 0.0873
1.5375 3.1610 0.1145
1.5425 2.7183 0.1062
1.5475 1.7590 0.0878
1.5525 0.9000 0.0621
1.5575 0.6355 0.0531
1.5625 0.5490 0.0474
1.5675 0.4971 0.0458
1.5725 0.5041 0.0468
1.5775 0.5694 0.0500
1.5825 0.4726 0.0457
1.5875 0.4971 0.0450
1.5925 0.4779 0.0454
1.5975 0.4954 0.0462
1.6025 0.6032 0.0515
1.6075 0.6277 0.0527
1.6125 0.5461 0.0470
1.6175 0.5709 0.0495
1.6225 0.5663 0.0501
1.6275 0.5542 0.0494
1.6325 0.5263 0.0483
1.6375 0.5631 0.0479
1.6425 0.6510 0.0530
1.6475 0.6165 0.0516
1.6525 0.5426 0.0493
1.6575 0.5289 0.0485
1.6625 0.7034 0.0538
1.6675 0.9609 0.0646
1.6725 1.4742 0.0804
1.6775 2.6521 0.1081
1.6825 4.5740 0.1426
1.6875 7.3435 0.1749
1.6925 9.4725 0.2008
1.6975 7.6443 0.1827
1.7025 5.8436 0.1601
1.7075 3.7964 0.1314
1.7125 2.6797 0.1068
1.7175 1.7561 0.0861
1.7225 1.3280 0.0763
1.7275 1.0221 0.0672
1.7325 0.9858 0.0666
1.7375 0.7649 0.0577
1.7425 0.6588 0.0520
1.7475 0.6766 0.0547
1.7525 0.7034 0.0558
1.7575 0.6438 0.0539
1.7625 0.6306 0.0529
1.7675 0.6053 0.0501
1.7725 0.6566 0.0534
1.7775 0.5460 0.0490
1.7825 0.5378 0.0491
1.7875 0.6317 0.0530
1.7925 0.5807 0.0501
1.7975 0.5462 0.0483
1.8025 0.4450 0.0442
1.8075 0.5338 0.0486
1.8125 0.4996 0.0472
1.8175 0.4883 0.0472
1.8225 0.4912 0.0451
1.8275 0.5762 0.0502
1.8325 0.5382 0.0485
1.8375 0.3937 0.0420
1.8425 0.4564 0.0454
1.8475 0.3809 0.0406
1.8525 0.4998 0.0460
1.8575 0.4971 0.0468
1.8625 0.4819 0.0464
1.8675 0.5183 0.0485
1.8725 0.5653 0.0506
1.8775 0.6129 0.0505
1.8825 0.5144 0.0470
1.8875 0.5198 0.0481
1.8925 0.4589 0.0457
1.8975 0.4321 0.0443
1.9025 0.4334 0.0438
1.9075 0.3862 0.0403
1.9125 0.3538 0.0393
1.9175 0.3853 0.0416
1.9225 0.4365 0.0445
1.9275 0.4229 0.0436
1.9325 0.4363 0.0432
1.9375 0.4027 0.0418
1.9425 0.4672 0.0454
1.9475 0.4912 0.0473
1.9525 0.4910 0.0470
1.9575 0.4133 0.0433
1.9625 0.5024 0.0460
1.9675 0.5903 0.0508
1.9725 0.6453 0.0536
1.9775 0.7358 0.0574
1.9825 0.7030 0.0563
1.9875 0.5696 0.0514
1.9925 0.4558 0.0437
1.9975 0.4715 0.0454
2.0025 0.4997 0.0472
2.0075 0.5020 0.0474
2.0125 0.6049 0.0524
2.0175 0.6746 0.0560
2.0225 0.7465 0.0557
2.0275 0.6808 0.0542
2.0325 0.7704 0.0589
2.0375 0.7622 0.0585
2.0425 0.7420 0.0585
2.0475 0.6565 0.0545
2.0525 0.5837 0.0493
2.0575 0.5620 0.0498
2.0625 0.4636 0.0456
2.0675 0.3002 0.0370
2.0725 0.3922 0.0423
2.0775 0.3457 0.0389
2.0825 0.3392 0.0380
2.0875 0.3296 0.0384
2.0925 0.3526 0.0399
2.0975 0.3060 0.0371
2.1025 0.3099 0.0376
2.1075 0.2571 0.0335
2.1125 0.2514 0.0328
2.1175 0.2538 0.0337
2.1225 0.2802 0.0356
2.1275 0.2786 0.0354
2.1325 0.3038 0.0374
2.1375 0.2451 0.0328
2.1425 0.2046 0.0296
2.1475 0.2577 0.0338
2.1525 0.2529 0.0335
2.1575 0.2381 0.0330
2.1625 0.2681 0.0349
2.1675 0.2883 0.0358
2.1725 0.2527 0.0329
2.1775 0.2189 0.0310
2.1825 0.2709 0.0350
2.1875 0.2712 0.0350
2.1925 0.2628 0.0351
2.1975 0.2333 0.0318
2.2025 0.3302 0.0376
2.2075 0.2530 0.0335
2.2125 0.2347 0.0326
2.2175 0.2394 0.0329
2.2225 0.3099 0.0376
2.2275 0.2530 0.0335
2.2325 0.3161 0.0365
2.2375 0.2493 0.0334
2.2425 0.2212 0.0316
2.2475 0.2016 0.0304
2.2525 0.1931 0.0298
2.2575 0.2679 0.0341
2.2625 0.2414 0.0323
2.2675 0.2872 0.0356
2.2725 0.2068 0.0305
2.2775 0.2637 0.0349
2.2825 0.1844 0.0288
2.2875 0.2824 0.0353
2.2925 0.2048 0.0296
2.2975 0.2308 0.0320
2.3025 0.1768 0.0283
2.3075 0.2395 0.0329
2.3125 0.1736 0.0282
2.3175 0.2179 0.0309
2.3225 0.2046 0.0296
2.3275 0.2410 0.0329
2.3325 0.2370 0.0326
2.3375 0.2307 0.0323
2.3425 0.1927 0.0298
2.3475 0.1786 0.0279
2.3525 0.1857 0.0284
2.3575 0.1716 0.0275
2.3625 0.1722 0.0280
2.3675 0.2060 0.0307
2.3725 0.1903 0.0294
2.3775 0.1602 0.0264
2.3825 0.1889 0.0285
2.3875 0.1385 0.0249
2.3925 0.1497 0.0257
2.3975 0.1509 0.0263
2.4025 0.2089 0.0312
2.4075 0.2065 0.0298
2.4125 0.1839 0.0281
2.4175 0.2163 0.0309
2.4225 0.1708 0.0277
2.4275 0.2381 0.0330
2.4325 0.2075 0.0310
2.4375 0.1953 0.0288
2.4425 0.2372 0.0320
2.4475 0.1763 0.0279
2.4525 0.2370 0.0329
2.4575 0.1901 0.0294
2.4625 0.1569 0.0270
2.4675 0.2601 0.0331
2.4725 0.2377 0.0321
2.4775 0.2126 0.0307
2.4825 0.2104 0.0311
2.4875 0.1985 0.0300
2.4925 0.2909 0.0367
2.4975 0.2119 0.0297
2.5025 0.2446 0.0325
2.5075 0.2182 0.0312
2.5125 0.2573 0.0344
2.5175 0.2338 0.0324
2.5225 0.1854 0.0294
2.5275 0.2412 0.0314
2.5325 0.2397 0.0324
2.5375 0.2199 0.0315
2.5425 0.2605 0.0346
2.5475 0.2550 0.0338
2.5525 0.2466 0.0330
2.5575 0.2822 0.0345
2.5625 0.1907 0.0291
2.5675 0.1926 0.0294
2.5725 0.1772 0.0284
2.5775 0.2039 0.0304
2.5825 0.1815 0.0278
2.5875 0.2647 0.0337
2.5925 0.2217 0.0314
2.5975 0.1983 0.0300
2.6025 0.1585 0.0268
2.6075 0.1427 0.0256
2.6125 0.1923 0.0281
2.6175 0.1525 0.0258
2.6225 0.1567 0.0265
2.6275 0.1933 0.0295
2.6325 0.1625 0.0271
2.6375 0.2074 0.0300
2.6425 0.1861 0.0281
2.6475 0.1858 0.0287
2.6525 0.1911 0.0291
2.6575 0.1236 0.0238
2.6625 0.1968 0.0300
2.6675 0.1556 0.0253
2.6725 0.1437 0.0251
2.6775 0.1323 0.0241
2.6825 0.1137 0.0228
2.6875 0.1354 0.0248
2.6925 0.1401 0.0244
2.6975 0.1365 0.0242
0.2137 0.0156 0.0092
0.2142 0.0306 0.0138
0.2147 0.0240 0.0122
0.2152 0.0375 0.0143
0.2157 0.0223 0.0113
0.2162 0.0285 0.0129
0.2167 0.0246 0.0124
0.2172 0.0213 0.0107
0.2177 0.0050 0.0052
0.2182 0.0176 0.0104
0.2188 0.0237 0.0120
0.2193 0.0268 0.0121
0.2198 0.0254 0.0114
