1.0675 1.2447 0.5578
1.0725 0.5525 0.0888
1.0775 0.6670 0.0871
1.0825 0.5795 0.0743
1.0875 0.6285 0.0675
1.0925 0.6574 0.0676
1.0975 0.6656 0.0660
1.1025 0.7746 0.0677
1.1075 0.7182 0.0601
1.1125 0.7094 0.0611
1.1175 0.6268 0.0554
1.1225 0.7155 0.0566
1.1275 0.7504 0.0563
1.1325 0.7351 0.0564
1.1375 0.7573 0.0573
1.1425 0.8245 0.0572
1.1475 0.8375 0.0589
1.1525 0.7339 0.0560
1.1575 0.9146 0.0611
1.1625 0.9710 0.0631
1.1675 0.9329 0.0623
1.1725 1.0167 0.0658
1.1775 0.9806 0.0626
1.1825 0.9506 0.0625
1.1875 0.9634 0.0631
1.1925 1.0082 0.0652
1.1975 0.9842 0.0621
1.2025 0.9427 0.0619
1.2075 1.0794 0.0673
1.2125 1.1048 0.0683
1.2175 1.0428 0.0638
1.2225 1.0250 0.0651
1.2275 1.2403 0.0717
1.2325 1.1513 0.0704
1.2375 1.2276 0.0688
1.2425 1.1196 0.0680
1.2475 1.2234 0.0720
1.2525 1.3386 0.0745
1.2575 1.2967 0.0723
1.2625 1.2630 0.0722
1.2675 1.3333 0.0747
1.2725 1.2842 0.0728
1.2775 1.4267 0.0748
1.2825 1.3737 0.0755
1.2875 1.4613 0.0792
1.2925 1.4646 0.0778
1.2975 1.3549 0.0738
1.3025 1.5629 0.0804
1.3075 1.6569 0.0836
1.3125 1.6278 0.0830
1.3175 1.5087 0.0769
1.3225 1.5599 0.0808
1.3275 1.6229 0.0828
1.3325 1.8136 0.0884
1.3375 1.7828 0.0841
1.3425 1.7882 0.0865
1.3475 1.7839 0.0866
1.3525 1.6904 0.0846
1.3575 1.8753 0.0868
1.3625 1.8424 0.0878
1.3675 1.9586 0.0907
1.3725 1.9083 0.0911
1.3775 1.9002 0.0888
1.3825 2.0286 0.0906
1.3875 1.8382 0.0886
1.3925 1.8765 0.0897
1.3975 1.9647 0.0922
1.4025 2.0163 0.0891
1.4075 2.0249 0.0920
1.4125 2.0645 0.0943
1.4175 1.9406 0.0915
1.4225 2.0614 0.0914
1.4275 2.1211 0.0938
1.4325 1.9482 0.0916
1.4375 1.9349 0.0907
1.4425 1.9292 0.0916
1.4475 2.0067 0.0894
1.4525 1.9531 0.0912
1.4575 2.0864 0.0950
1.4625 1.9607 0.0925
1.4675 2.2023 0.0952
1.4725 1.9466 0.0899
1.4775 1.9918 0.0927
1.4825 1.9142 0.0910
1.4875 1.8386 0.0896
1.4925 2.0093 0.0902
1.4975 1.9325 0.0901
1.5025 1.9256 0.0915
1.5075 1.9121 0.0918
1.5125 1.5980 0.0818
1.5175 1.7929 0.0863
1.5225 1.7082 0.0854
1.5275 1.7338 0.0868
1.5325 1.7148 0.0869
1.5375 1.6369 0.0824
1.5425 1.7607 0.0855
1.5475 1.5243 0.0818
1.5525 1.5432 0.0814
1.5575 1.6838 0.0865
1.5625 1.5149 0.0788
1.5675 1.5815 0.0817
1.5725 1.5945 0.0833
1.5775 1.5694 0.0830
1.5825 1.4559 0.0803
1.5875 1.5138 0.0786
1.5925 1.3516 0.0763
1.5975 1.3352 0.0759
1.6025 1.6128 0.0843
1.6075 1.4599 0.0804
1.6125 1.3766 0.0747
1.6175 1.2874 0.0743
1.6225 1.1769 0.0722
1.6275 1.3353 0.0767
1.6325 1.2788 0.0752
1.6375 1.1798 0.0694
1.6425 1.3103 0.0752
1.6475 1.1688 0.0710
1.6525 1.2836 0.0759
1.6575 1.1252 0.0707
1.6625 1.2427 0.0715
1.6675 1.0220 0.0667
1.6725 1.1976 0.0725
1.6775 1.2469 0.0741
1.6825 1.1016 0.0700
1.6875 1.0173 0.0651
1.6925 1.1709 0.0706
1.6975 1.0172 0.0666
1.7025 1.0435 0.0677
1.7075 0.9677 0.0663
1.7125 1.0374 0.0664
1.7175 0.9798 0.0643
1.7225 0.8377 0.0606
1.7275 1.0221 0.0673
1.7325 0.9360 0.0649
1.7375 0.9871 0.0655
1.7425 0.9705 0.0631
1.7475 0.8804 0.0624
1.7525 0.9863 0.0661
1.7575 0.8873 0.0632
1.7625 0.8574 0.0617
1.7675 0.9462 0.0627
1.7725 0.8735 0.0616
1.7775 0.7178 0.0562
1.7825 0.8387 0.0613
1.7875 0.8847 0.0627
1.7925 0.8407 0.0603
1.7975 0.8701 0.0610
1.8025 0.7339 0.0567
1.8075 0.8618 0.0618
1.8125 0.8433 0.0614
1.8175 0.6941 0.0563
1.8225 0.7808 0.0568
1.8275 0.7158 0.0559
1.8325 0.7115 0.0557
1.8375 0.6720 0.0549
1.8425 0.7062 0.0565
1.8475 0.7145 0.0556
1.8525 0.7291 0.0556
1.8575 0.9073 0.0632
1.8625 0.7730 0.0587
1.8675 0.7001 0.0564
1.8725 0.6927 0.0560
1.8775 0.6373 0.0515
1.8825 0.7428 0.0565
1.8875 0.7200 0.0566
1.8925 0.6771 0.0555
1.8975 0.5917 0.0519
1.9025 0.7345 0.0570
1.9075 0.5332 0.0473
1.9125 0.6821 0.0546
1.9175 0.5691 0.0505
1.9225 0.6458 0.0542
1.9275 0.6175 0.0527
1.9325 0.6117 0.0511
1.9375 0.5670 0.0495
1.9425 0.6391 0.0531
1.9475 0.5998 0.0522
1.9525 0.5547 0.0500
1.9575 0.4819 0.0468
1.9625 0.5701 0.0490
1.9675 0.7123 0.0558
1.9725 0.5073 0.0475
1.9775 0.5787 0.0509
1.9825 0.6268 0.0531
1.9875 0.5282 0.0495
1.9925 0.5691 0.0488
1.9975 0.5152 0.0474
2.0025 0.4645 0.0455
2.0075 0.5645 0.0503
2.0125 0.3589 0.0404
2.0175 0.4928 0.0479
2.0225 0.5349 0.0471
2.0275 0.4958 0.0462
2.0325 0.6034 0.0521
2.0375 0.4480 0.0448
2.0425 0.5165 0.0488
2.0475 0.4162 0.0434
2.0525 0.4379 0.0427
2.0575 0.3379 0.0386
2.0625 0.4497 0.0449
2.0675 0.4600 0.0458
2.0725 0.4733 0.0465
2.0775 0.4953 0.0466
2.0825 0.4419 0.0434
2.0875 0.4451 0.0446
2.0925 0.4699 0.0461
2.0975 0.4450 0.0448
2.1025 0.4107 0.0433
2.1075 0.3574 0.0395
2.1125 0.4138 0.0421
2.1175 0.3965 0.0421
2.1225 0.4704 0.0461
2.1275 0.4181 0.0434
2.1325 0.3908 0.0424
2.1375 0.3898 0.0413
2.1425 0.4179 0.0423
2.1475 0.3684 0.0405
2.1525 0.3506 0.0395
2.1575 0.3344 0.0392
2.1625 0.3950 0.0424
2.1675 0.3995 0.0421
2.1725 0.3855 0.0407
2.1775 0.3817 0.0409
2.1825 0.3616 0.0404
2.1875 0.3617 0.0405
2.1925 0.3519 0.0406
2.1975 0.4064 0.0419
2.2025 0.3774 0.0402
2.2075 0.3550 0.0397
2.2125 0.3482 0.0397
2.2175 0.4206 0.0436
2.2225 0.3602 0.0406
2.2275 0.3905 0.0417
2.2325 0.3417 0.0380
2.2375 0.4505 0.0448
2.2425 0.3525 0.0399
2.2475 0.3306 0.0389
2.2525 0.3037 0.0374
2.2575 0.3544 0.0392
2.2625 0.3018 0.0361
2.2675 0.3179 0.0375
2.2725 0.2967 0.0366
2.2775 0.2913 0.0367
2.2825 0.3461 0.0395
2.2875 0.3177 0.0375
2.2925 0.3628 0.0394
2.2975 0.3241 0.0380
2.3025 0.3539 0.0401
2.3075 0.3165 0.0378
2.3125 0.3342 0.0391
2.3175 0.2887 0.0356
2.3225 0.3028 0.0361
2.3275 0.3170 0.0377
2.3325 0.3036 0.0369
2.3375 0.3525 0.0399
2.3425 0.2753 0.0356
2.3475 0.3529 0.0393
2.3525 0.2980 0.0359
2.3575 0.2198 0.0311
2.3625 0.2814 0.0358
2.3675 0.3669 0.0410
2.3725 0.2313 0.0324
2.3775 0.2908 0.0356
2.3825 0.3012 0.0360
2.3875 0.2905 0.0361
2.3925 0.3354 0.0385
2.3975 0.2012 0.0304
2.4025 0.3343 0.0394
2.4075 0.3055 0.0363
2.4125 0.3598 0.0393
2.4175 0.3046 0.0367
2.4225 0.2964 0.0365
2.4275 0.1922 0.0297
2.4325 0.3881 0.0424
2.4375 0.2844 0.0348
2.4425 0.2198 0.0308
2.4475 0.2649 0.0342
2.4525 0.2870 0.0362
2.4575 0.2630 0.0346
2.4625 0.3233 0.0387
2.4675 0.2601 0.0331
2.4725 0.2723 0.0343
2.4775 0.3459 0.0392
2.4825 0.2973 0.0369
2.4875 0.3343 0.0389
2.4925 0.2308 0.0327
2.4975 0.3325 0.0372
2.5025 0.2794 0.0347
2.5075 0.2628 0.0342
2.5125 0.2574 0.0344
2.5175 0.3191 0.0379
2.5225 0.2878 0.0366
2.5275 0.2823 0.0340
2.5325 0.2834 0.0352
2.5375 0.2873 0.0360
2.5425 0.3431 0.0397
2.5475 0.2414 0.0329
2.5525 0.2383 0.0325
2.5575 0.2318 0.0313
2.5625 0.2929 0.0361
2.5675 0.2779 0.0353
2.5725 0.2046 0.0305
2.5775 0.1948 0.0298
2.5825 0.2200 0.0306
2.5875 0.2857 0.0350
2.5925 0.2216 0.0314
2.5975 0.2347 0.0326
2.6025 0.2171 0.0314
2.6075 0.2205 0.0319
2.6125 0.2087 0.0292
2.6175 0.2092 0.0302
2.6225 0.2421 0.0329
2.6275 0.2294 0.0321
2.6325 0.2034 0.0303
2.6375 0.1684 0.0270
2.6425 0.2031 0.0293
2.6475 0.1636 0.0269
2.6525 0.2446 0.0330
2.6575 0.2019 0.0304
2.6625 0.1420 0.0255
2.6675 0.2050 0.0290
2.6725 0.2009 0.0296
2.6775 0.1938 0.0292
2.6825 0.1599 0.0270
2.6875 0.1538 0.0264
2.6925 0.1316 0.0237
2.6975 0.1280 0.0234
0.2137 0.0156 0.0092
0.2142 0.0306 0.0138
0.2147 0.0240 0.0122
0.2152 0.0375 0.0143
0.2157 0.0223 0.0113
0.2162 0.0285 0.0129
0.2167 0.0246 0.0124
0.2172 0.0213 0.0107
0.2177 0.0050 0.0052
0.2182 0.0176 0.0104
0.2188 0.0237 0.0120
0.2193 0.0268 0.0121
0.2198 0.0254 0.0114
