1.0675 -0.0004 1.0000
1.0725 0.4392 0.0792
1.0775 0.4755 0.0735
1.0825 0.5318 0.0712
1.0875 0.6141 0.0667
1.0925 0.6309 0.0662
1.0975 0.6524 0.0653
1.1025 0.6502 0.0620
1.1075 0.6476 0.0570
1.1125 0.6357 0.0578
1.1175 0.7588 0.0610
1.1225 0.6352 0.0534
1.1275 0.6361 0.0518
1.1325 0.6490 0.0530
1.1375 0.6797 0.0542
1.1425 0.6664 0.0514
1.1475 0.7712 0.0566
1.1525 0.6788 0.0539
1.1575 0.7181 0.0541
1.1625 0.8934 0.0605
1.1675 0.8457 0.0594
1.1725 0.7783 0.0575
1.1775 0.9005 0.0600
1.1825 0.8270 0.0583
1.1875 0.9046 0.0611
1.1925 0.8906 0.0613
1.1975 0.9602 0.0614
1.2025 1.0364 0.0649
1.2075 1.0173 0.0654
1.2125 0.9442 0.0631
1.2175 1.0424 0.0638
1.2225 1.0374 0.0655
1.2275 1.0241 0.0652
1.2325 1.0944 0.0687
1.2375 1.1656 0.0671
1.2425 1.0443 0.0657
1.2475 1.1225 0.0690
1.2525 1.0863 0.0671
1.2575 1.0960 0.0665
1.2625 1.2138 0.0708
1.2675 1.0699 0.0669
1.2725 1.3052 0.0734
1.2775 1.2818 0.0709
1.2825 1.4407 0.0773
1.2875 1.3451 0.0760
1.2925 1.4822 0.0783
1.2975 1.3433 0.0735
1.3025 1.4304 0.0769
1.3075 1.3588 0.0757
1.3125 1.5033 0.0798
1.3175 1.3277 0.0722
1.3225 1.5556 0.0807
1.3275 1.6407 0.0832
1.3325 1.5649 0.0821
1.3375 1.6803 0.0817
1.3425 1.6977 0.0843
1.3475 1.5747 0.0813
1.3525 1.6349 0.0832
1.3575 1.7736 0.0844
1.3625 1.6287 0.0825
1.3675 1.6900 0.0843
1.3725 1.8046 0.0886
1.3775 1.8433 0.0875
1.3825 1.7777 0.0848
1.3875 1.7693 0.0870
1.3925 1.9234 0.0909
1.3975 1.9518 0.0919
1.4025 1.9526 0.0877
1.4075 1.8245 0.0874
1.4125 2.0212 0.0933
1.4175 1.9537 0.0918
1.4225 1.8629 0.0868
1.4275 1.9717 0.0904
1.4325 2.0266 0.0935
1.4375 2.0040 0.0923
1.4425 1.9644 0.0924
1.4475 2.1057 0.0916
1.4525 1.9399 0.0909
1.4575 2.1865 0.0973
1.4625 2.0220 0.0940
1.4675 1.8975 0.0884
1.4725 1.6594 0.0830
1.4775 2.0005 0.0929
1.4825 1.8504 0.0895
1.4875 2.0359 0.0943
1.4925 1.8154 0.0857
1.4975 1.8948 0.0892
1.5025 1.9949 0.0931
1.5075 1.8139 0.0894
1.5125 1.8612 0.0882
1.5175 1.9335 0.0896
1.5225 1.6782 0.0847
1.5275 1.7419 0.0870
1.5325 1.7235 0.0871
1.5375 1.5787 0.0809
1.5425 1.7276 0.0847
1.5475 1.6806 0.0859
1.5525 1.7134 0.0858
1.5575 1.5067 0.0818
1.5625 1.5682 0.0802
1.5675 1.6870 0.0844
1.5725 1.6032 0.0835
1.5775 1.4464 0.0796
1.5825 1.5401 0.0826
1.5875 1.5004 0.0783
1.5925 1.3870 0.0773
1.5975 1.4647 0.0795
1.6025 1.4754 0.0806
1.6075 1.3049 0.0760
1.6125 1.3607 0.0742
1.6175 1.2443 0.0731
1.6225 1.3144 0.0763
1.6275 1.4219 0.0791
1.6325 1.2785 0.0752
1.6375 1.1752 0.0693
1.6425 1.2246 0.0727
1.6475 1.3022 0.0749
1.6525 1.2157 0.0738
1.6575 1.2582 0.0748
1.6625 1.2675 0.0722
1.6675 1.1175 0.0697
1.6725 1.1494 0.0710
1.6775 1.2740 0.0749
1.6825 1.0487 0.0683
1.6875 1.0583 0.0664
1.6925 1.1665 0.0705
1.6975 1.0043 0.0662
1.7025 1.0046 0.0664
1.7075 1.0631 0.0695
1.7125 0.9910 0.0649
1.7175 0.9838 0.0644
1.7225 1.0306 0.0672
1.7275 1.0526 0.0682
1.7325 0.9721 0.0662
1.7375 0.8824 0.0619
1.7425 0.9666 0.0629
1.7475 0.8666 0.0619
1.7525 0.9245 0.0640
1.7575 0.9409 0.0651
1.7625 0.9292 0.0643
1.7675 0.8626 0.0598
1.7725 0.9085 0.0628
1.7775 0.8151 0.0599
1.7825 0.8480 0.0617
1.7875 0.7690 0.0585
1.7925 0.9020 0.0625
1.7975 0.8652 0.0608
1.8025 0.7908 0.0589
1.8075 0.8003 0.0595
1.8125 0.7628 0.0584
1.8175 0.8175 0.0611
1.8225 0.6816 0.0531
1.8275 0.7721 0.0581
1.8325 0.6722 0.0542
1.8375 0.7039 0.0562
1.8425 0.6827 0.0556
1.8475 0.6187 0.0518
1.8525 0.7035 0.0546
1.8575 0.7530 0.0576
1.8625 0.7188 0.0566
1.8675 0.8228 0.0612
1.8725 0.8053 0.0604
1.8775 0.6669 0.0527
1.8825 0.6133 0.0513
1.8875 0.6442 0.0535
1.8925 0.6458 0.0542
1.8975 0.6965 0.0563
1.9025 0.6331 0.0529
1.9075 0.5759 0.0492
1.9125 0.5595 0.0494
1.9175 0.6411 0.0536
1.9225 0.6316 0.0536
1.9275 0.6173 0.0527
1.9325 0.5902 0.0502
1.9375 0.6321 0.0523
1.9425 0.5470 0.0491
1.9475 0.6778 0.0555
1.9525 0.5141 0.0481
1.9575 0.6087 0.0526
1.9625 0.5271 0.0472
1.9675 0.5197 0.0476
1.9725 0.4671 0.0456
1.9775 0.4529 0.0451
1.9825 0.5769 0.0510
1.9875 0.5927 0.0524
1.9925 0.5183 0.0466
1.9975 0.5243 0.0478
2.0025 0.6164 0.0525
2.0075 0.5425 0.0493
2.0125 0.4997 0.0477
2.0175 0.5345 0.0499
2.0225 0.4935 0.0453
2.0275 0.5515 0.0488
2.0325 0.4635 0.0457
2.0375 0.4657 0.0457
2.0425 0.4887 0.0475
2.0475 0.5346 0.0492
2.0525 0.4999 0.0456
2.0575 0.4342 0.0437
2.0625 0.4097 0.0429
2.0675 0.4279 0.0442
2.0725 0.5065 0.0481
2.0775 0.4154 0.0427
2.0825 0.4159 0.0421
2.0875 0.4317 0.0439
2.0925 0.4291 0.0441
2.0975 0.4768 0.0463
2.1025 0.4834 0.0470
2.1075 0.4313 0.0434
2.1125 0.3327 0.0377
2.1175 0.3611 0.0402
2.1225 0.5019 0.0477
2.1275 0.4365 0.0443
2.1325 0.4553 0.0458
2.1375 0.4030 0.0420
2.1425 0.3414 0.0382
2.1475 0.3684 0.0405
2.1525 0.4127 0.0428
2.1575 0.4626 0.0461
2.1625 0.3949 0.0424
2.1675 0.3104 0.0371
2.1725 0.3640 0.0395
2.1775 0.4209 0.0430
2.1825 0.3164 0.0378
2.1875 0.3885 0.0419
2.1925 0.3518 0.0406
2.1975 0.2638 0.0338
2.2025 0.3772 0.0402
2.2075 0.3864 0.0414
2.2125 0.4385 0.0445
2.2175 0.3891 0.0420
2.2225 0.3558 0.0403
2.2275 0.3328 0.0385
2.2325 0.3074 0.0360
2.2375 0.3703 0.0407
2.2425 0.2349 0.0326
2.2475 0.3440 0.0397
2.2525 0.3449 0.0399
2.2575 0.2896 0.0354
2.2625 0.3449 0.0386
2.2675 0.3495 0.0393
2.2725 0.3596 0.0402
2.2775 0.3374 0.0395
2.2825 0.2699 0.0349
2.2875 0.2692 0.0345
2.2925 0.3373 0.0380
2.2975 0.3106 0.0372
2.3025 0.3995 0.0426
2.3075 0.2667 0.0347
2.3125 0.3151 0.0379
2.3175 0.3278 0.0379
2.3225 0.3365 0.0380
2.3275 0.3387 0.0390
2.3325 0.2946 0.0363
2.3375 0.3289 0.0386
2.3425 0.2847 0.0362
2.3475 0.2915 0.0357
2.3525 0.2027 0.0296
2.3575 0.2946 0.0360
2.3625 0.3130 0.0377
2.3675 0.3341 0.0391
2.3725 0.2675 0.0349
2.3775 0.2429 0.0325
2.3825 0.3012 0.0360
2.3875 0.3442 0.0393
2.3925 0.2822 0.0353
2.3975 0.3113 0.0378
2.4025 0.2924 0.0369
2.4075 0.2452 0.0325
2.4125 0.2611 0.0335
2.4175 0.2826 0.0354
2.4225 0.2563 0.0340
2.4275 0.2973 0.0369
2.4325 0.2724 0.0355
2.4375 0.3272 0.0373
2.4425 0.3022 0.0362
2.4475 0.2600 0.0339
2.4525 0.2414 0.0332
2.4575 0.2948 0.0366
2.4625 0.3234 0.0387
2.4675 0.2429 0.0319
2.4725 0.3113 0.0367
2.4775 0.2662 0.0344
2.4825 0.2930 0.0367
2.4875 0.2932 0.0364
2.4925 0.2123 0.0313
2.4975 0.2784 0.0341
2.5025 0.2362 0.0319
2.5075 0.2048 0.0302
2.5125 0.3220 0.0385
2.5175 0.2962 0.0365
2.5225 0.2781 0.0360
2.5275 0.2330 0.0309
2.5325 0.2088 0.0302
2.5375 0.2292 0.0321
2.5425 0.2564 0.0343
2.5475 0.2369 0.0326
2.5525 0.2513 0.0333
2.5575 0.2568 0.0329
2.5625 0.2532 0.0335
2.5675 0.2418 0.0329
2.5725 0.2364 0.0328
2.5775 0.2218 0.0318
2.5825 0.2876 0.0350
2.5875 0.2557 0.0331
2.5925 0.1681 0.0273
2.5975 0.2398 0.0329
2.6025 0.2400 0.0330
2.6075 0.2433 0.0335
2.6125 0.2374 0.0312
2.6175 0.2397 0.0324
2.6225 0.2240 0.0317
2.6275 0.1801 0.0285
2.6325 0.2032 0.0303
2.6375 0.1859 0.0284
2.6425 0.1948 0.0287
2.6475 0.2033 0.0300
2.6525 0.1731 0.0277
2.6575 0.1973 0.0301
2.6625 0.1973 0.0301
2.6675 0.1596 0.0256
2.6725 0.1702 0.0273
2.6775 0.1937 0.0292
2.6825 0.1504 0.0262
2.6875 0.1356 0.0248
2.6925 0.1404 0.0244
2.6975 0.1708 0.0270
0.2137 0.0156 0.0092
0.2142 0.0306 0.0138
0.2147 0.0240 0.0122
0.2152 0.0375 0.0143
0.2157 0.0223 0.0113
0.2162 0.0285 0.0129
0.2167 0.0246 0.0124
0.2172 0.0213 0.0107
0.2177 0.0050 0.0052
0.2182 0.0176 0.0104
0.2188 0.0237 0.0120
0.2193 0.0268 0.0121
0.2198 0.0254 0.0114
